,time,theta,torque
0,0.0,1.9198621771937625,-135.0844310926892
1,0.0005130635910836507,1.919862177105399,-81.99421731741222
2,0.0009990996516420312,1.9198621768586825,-56.223301184100386
3,0.001644208822057282,1.9198621762862662,-37.44087110442492
4,0.002450563539956381,1.9198621751778908,-24.94332585459295
5,0.0034674718031360106,1.9198621731577095,-16.656388568681226
6,0.004743458608967783,1.919862169640732,-11.263611924534066
7,0.006333460919912446,1.9198621637285502,-7.822107488199387
8,0.00829315684053941,1.919862154106588,-5.6811236184171845
9,0.010675665247237417,1.9198621389358785,-4.395616496307823
10,0.01349947513971225,1.9198621160200484,-3.67211159313541
11,0.01667814760550056,1.9198620838195934,-3.315532177357502
12,0.02009934399038124,1.919862041582755,-3.1701650658535634
13,0.023809086745739155,1.9198619869034323,-3.1202924439458806
14,0.028098956434386143,1.9198619121535812,-3.105288717610061
15,0.03340439973818317,1.9198618026187362,-3.1014368706471003
16,0.04030427298516789,1.9198616318958057,-3.1003692975519805
17,0.04978737429664931,1.9198613451034046,-3.0996423223199843
18,0.061395083300390216,1.9198609118755234,-3.099358798758323
19,0.06930218291970798,1.9198605649643399,-3.0974957136668544
20,0.07720928253902574,1.919860176076535,-3.0962064209676514
21,0.08771563241648665,1.919859594408985,-3.094855417599002
22,0.09699671567951393,1.9198590189256597,-3.0926893458903373
23,0.1062777989425412,1.919858385608507,-3.0909525207400557
24,0.11715383005676441,1.9198575698595193,-3.0874115166566405
25,0.12590636447576445,1.9198568557069213,-3.085343520985576
26,0.133851101542564,1.9198561629311852,-3.084005984334624
27,0.14302979126560555,1.919855309790412,-3.081680245085301
28,0.15524608512925014,1.9198540865630007,-3.078148020745597
29,0.16411391295938924,1.9198531358485946,-3.074548078214245
30,0.172323417515033,1.919852208643593,-3.072393248009634
31,0.1818642371424372,1.9198510742172405,-3.0692756308467244
32,0.1954570713071266,1.9198493524196274,-3.0649428927224194
33,0.20347324832773706,1.9198482788540714,-3.0607675342259304
34,0.2114894253483475,1.9198471621366808,-3.0577817407856838
35,0.2197718848559301,1.9198459629973594,-3.0536756654359833
36,0.22801259165038698,1.9198447241826586,-3.0504682558489886
37,0.23942012381853955,1.9198429340408905,-3.0456889789543835
38,0.2482860594189553,1.9198414823856687,-3.0402266604527477
39,0.25663211669076497,1.9198400676132859,-3.03662685461235
40,0.2672099045841298,1.919838207311234,-3.031525657592781
41,0.2752248178539431,1.9198367476949119,-3.0265844760422365
42,0.2832397311237564,1.9198352449318232,-3.022531837030033
43,0.2910565085945644,1.9198337377573043,-3.017547648339027
44,0.2988732860653724,1.9198321895407848,-3.013443311969435
45,0.3070080791236604,1.9198305347553064,-3.0078969103241637
46,0.3147823978380858,1.9198289117569676,-3.00370666211997
47,0.3266642952518131,1.9198263527985335,-2.9972154579552144
48,0.3346718921710227,1.9198245747371878,-2.990629815130081
49,0.3426794890902323,1.9198227535988195,-2.98560864490857
50,0.3503726013081015,1.9198209634087238,-2.979765447525094
51,0.35806571352597066,1.9198191334562553,-2.974833703731491
52,0.3650475027695845,1.9198174382868236,-2.9694860917348054
53,0.3720292920131983,1.919815710366143,-2.964713179198306
54,0.379726429695248,1.9198137674462963,-2.9584249264111864
55,0.38738520996962994,1.9198117946968423,-2.953108391120103
56,0.3939803456267988,1.9198100643373375,-2.9477502053724436
57,0.40057548128396764,1.9198083047499912,-2.942813375342055
58,0.4119489324837986,1.9198052016383205,-2.9348444923871004
59,0.4199016619872759,1.9198029801866483,-2.9267665929257767
60,0.4278543914907532,1.9198007162305248,-2.920446542686029
61,0.43563857887717194,1.919798459090014,-2.9131064925071644
62,0.4432380717676952,1.9197962162172755,-2.907061603205154
63,0.45016189221180924,1.9197941389652942,-2.9005748210217956
64,0.4570857126559233,1.919792029490805,-2.894701901390381
65,0.464775593543268,1.9197896488524733,-2.8870798993812357
66,0.4722750825458961,1.9197872888695708,-2.8806895727925603
67,0.47924783151203604,1.9197850607264677,-2.873734665077811
68,0.48622058047817596,1.919782799898755,-2.8674578222690275
69,0.4938890501699866,1.9197802757516143,-2.8594077691966833
70,0.5013476243557781,1.9197777827663274,-2.852636027245089
71,0.5085451383545436,1.9197753415771854,-2.8449908727067426
72,0.5157426523533092,1.9197728655565172,-2.8381663073184393
73,0.5233559553659659,1.9197702085905197,-2.82975224364199
74,0.5308026225147433,1.9197675720735354,-2.822570734292904
75,0.5382843445229775,1.9197648855918217,-2.814100042066435
76,0.5456606002226482,1.9197622001290522,-2.806742268882542
77,0.553087452500156,1.9197594592770746,-2.798141530268724
78,0.5604395209508077,1.9197567094855472,-2.7905960085734676
79,0.5679517257065841,1.9197538622489896,-2.7816552566318378
80,0.5753292357763081,1.9197510291206312,-2.7738860643090137
81,0.5828194598933717,1.919748115253607,-2.7647594880206237
82,0.5901529181619337,1.9197452258088339,-2.7568296340596175
83,0.597620941799846,1.9197422461639313,-2.747529109383945
84,0.6049475901901389,1.9197392864644913,-2.73940259102869
85,0.6125636278801048,1.9197361715795447,-2.7296406891985443
86,0.6199036213199438,1.919733132663938,-2.7213367915491604
87,0.6274203709953281,1.919729982997136,-2.711528857364495
88,0.6347412180035074,1.9197268788715118,-2.703004763980053
89,0.6422729900472891,1.9197236476722224,-2.6929683787447347
90,0.6495943152436913,1.9197204701661221,-2.6842431526953225
91,0.6571462263998424,1.9197171547879859,-2.6739581915833113
92,0.6644785774706513,1.9197138990728169,-2.6650115943448265
93,0.6720608768589845,1.9197104943172896,-2.6544663442442054
94,0.6793892774749829,1.9197071667963714,-2.6453252216515906
95,0.6870142581991692,1.9197036662346225,-2.634495639043005
96,0.6943436410659448,1.9197002644862389,-2.6251620181272903
97,0.7019431222531107,1.9196966991889015,-2.614153147479139
98,0.7092369442186531,1.9196932407231644,-2.604672019880121
99,0.7168545370769922,1.9196895904965354,-2.5934353599226303
100,0.7241745012184378,1.9196860460757184,-2.583703223617048
101,0.7318080080483385,1.9196823114003365,-2.5722417517356604
102,0.7391620324829637,1.9196786763484035,-2.5622522599828175
103,0.7468254587773638,1.9196748496071634,-2.550506564197785
104,0.7541502486481458,1.9196711549929262,-2.540369499603681
105,0.7618347070620696,1.9196672401184909,-2.5283867880579733
106,0.7691715958410983,1.9196634651953888,-2.5180305668237395
107,0.7768575161366069,1.9196594717996605,-2.505841143502692
108,0.7841988587794696,1.919655620275818,-2.4952711194086397
109,0.7918956757682304,1.9196515432661732,-2.482854802011329
110,0.7992372684220691,1.9196476172239565,-2.472078472744467
111,0.8069682505556538,1.9196434436894096,-2.459398205829487
112,0.8143359686258603,1.9196394287789311,-2.448373574621524
113,0.822078183396402,1.91963517037333,-2.4354641449839955
114,0.8294400939124433,1.9196310836727604,-2.4242592431503893
115,0.8407737344106152,1.919624720798748,-2.4070587454956107
116,0.8487924395803186,1.9196201666756973,-2.39241549280915
117,0.8567714913151804,1.9196155920467453,-2.3796769490584473
118,0.8676467799215695,1.9196092877965687,-2.3624220593790164
119,0.8777938743566117,1.9196033337535734,-2.3453664766570474
120,0.8870035396151101,1.9195978696617928,-2.3292638209512266
121,0.896242293461636,1.9195923308388132,-2.3132456564238773
122,0.9058858671606195,1.9195864879098798,-2.2965799636580453
123,0.9156047845427244,1.9195805358632068,-2.2795619076219857
124,0.925302928688906,1.9195745330213438,-2.262374163836049
125,0.9349804241062633,1.9195684797072872,-2.24505304997615
126,0.9446655993599834,1.9195623583220391,-2.227557113255455
127,0.954394625390841,1.9195561454918646,-2.2098259220729637
128,0.9641752083458114,1.9195498353491258,-2.191843937668725
129,0.9739866037419243,1.9195434404556484,-2.173638197070304
130,0.9838482507870365,1.9195369473284345,-2.1551830649559234
131,0.9936984167924706,1.9195303962201375,-2.136572734535643
132,1.0035593987834626,1.9195237723009013,-2.1177675992621054
133,1.0134690449274184,1.919517049544767,-2.0987149834616683
134,1.0234531602323003,1.9195102092008538,-2.0793703894265576
135,1.0334672112075218,1.919503280717891,-2.059790736658772
136,1.0434807369842591,1.9194962848650257,-2.0400291200497698
137,1.0535526576385175,1.919489179881926,-2.0200102690450694
138,1.0636481807278255,1.9194819894678676,-1.9997700193134678
139,1.0737539325290477,1.91947472279376,-1.9793284946988607
140,1.0839113712166253,1.9194673494049361,-1.9586364497598752
141,1.0941037133137124,1.9194598805848655,-1.9376996477071502
142,1.1043277791245572,1.9194523179662837,-1.9165246145527246
143,1.1146129016916861,1.9194446388800208,-1.895065501666372
144,1.1249450494319067,1.9194368526662295,-1.8733453458120792
145,1.1353001009317567,1.9194289767608637,-1.8514004643640374
146,1.145695173260438,1.9194209974739267,-1.8292043184619464
147,1.156116069845195,1.9194129249988199,-1.8067849893119763
148,1.1665865104889086,1.9194047401535934,-1.7840918477966907
149,1.1770973871092232,1.9193964490920763,-1.7611422175624594
150,1.1876764215398057,1.9193880287770726,-1.7378882384824628
151,1.1982796728263585,1.9193795131817815,-1.7143954205766931
152,1.2089537068693739,1.9193708638734504,-1.6905998700879794
153,1.2196393153970806,1.9193621279271782,-1.666589993248878
154,1.2303605143919538,1.9193532851852746,-1.6423402130517328
155,1.2411140317949327,1.9193443375955161,-1.6178435771214645
156,1.2519296471541,1.9193352593353117,-1.5930464788847674
157,1.2627971582258377,1.9193260577037483,-1.567972584693175
158,1.2736885362324333,1.9193167555848094,-1.5426525992715139
159,1.2846613093870678,1.9193073026649057,-1.517001512068292
160,1.2956903144522762,1.919297719075099,-1.491049236546512
161,1.3067578912004136,1.9192880190854897,-1.4648328416841268
162,1.3178740115751209,1.9192781929621685,-1.4383380138380741
163,1.3290382632987925,1.9192682399628982,-1.4115660297430084
164,1.3402571730903583,1.9192581530875035,-1.3844980679613381
165,1.351527420023746,1.919247934097785,-1.35713888888626
166,1.3628637449700363,1.9192375682660794,-1.3294608536833272
167,1.3742570234897413,1.9192270625016066,-1.3014838910582773
168,1.3856994834658787,1.919216422725076,-1.273217922522599
169,1.397197202231537,1.9192056420528694,-1.244657232119098
170,1.4087519913764623,1.9191947174551103,-1.2157933680205388
171,1.4203806567610704,1.9191836314843354,-1.186590669389753
172,1.4320773409211272,1.919172388027257,-1.157059293593043
173,1.4438214720154583,1.9191610054661052,-1.1272452829099613
174,1.4556310002420798,1.9191494650344543,-1.0971132939441952
175,1.4675029236608774,1.919137768109693,-1.0666638907966977
176,1.4794469456267867,1.919125903484796,-1.03588095208849
177,1.4914591899277865,1.9191138732824995,-1.0047700066002931
178,1.5035402002348346,1.919101675260631,-0.9733301514172749
179,1.515690369973249,1.919089307302285,-0.9415624298870353
180,1.5279087176255512,1.9190767686836747,-0.9094682593034883
181,1.540204361350188,1.9190640482123587,-0.8770293519280375
182,1.552572727539235,1.9190511487159472,-0.844254462087014
183,1.5650169083117749,1.9190380650717225,-0.811138935249539
184,1.5775388471171392,1.9190247932621398,-0.7776789930580519
185,1.590140003395237,1.9190113297094096,-0.7438720146560273
186,1.6028220727417106,1.918997670516537,-0.7097161719253049
187,1.6155853403207994,1.9189838132510892,-0.6752117552343689
188,1.6284343246780473,1.9189697508044103,-0.6403499899133129
189,1.6413680714092074,1.918955481955906,-0.6051347691496164
190,1.6543849169147022,1.9189410062944101,-0.5695727664421257
191,1.6674957587954173,1.918926309315296,-0.5336396713131667
192,1.6806992377744434,1.91891139001101,-0.49734272404415736
193,1.6939891073516802,1.9188962529924547,-0.46069641085850466
194,1.7073815020177292,1.9188808772820816,-0.4236687886777653
195,1.7208690243193536,1.9188652686327279,-0.38627905917685823
196,1.7344583272477554,1.918849416593444,-0.3485155464812341
197,1.748146767686053,1.9188333214184197,-0.3103861315863187
198,1.761937462415216,1.9188169765846765,-0.27189247106452646
199,1.7758385932998757,1.9188003693538687,-0.2330139924419343
200,1.7898534453216204,1.9187834925713632,-0.19375116432183578
201,1.8039713862825162,1.9187663558888308,-0.15413589996698332
202,1.8181945228372807,1.918748953695038,-0.1141704363572328
203,1.8325483502250757,1.9187312513128971,-0.07379566157935222
204,1.847018260208833,1.918713263084254,-0.033050684233436885
205,1.8616129990694719,1.9186949745151642,-0.0
206,1.879090492563978,1.9186728817050807,-0.0
207,1.9015394256994602,1.918644197705836,-0.0
208,1.9276836267004123,1.9186103568526787,-0.0
209,1.956401846128734,1.9185726441366442,-0.0
210,1.9868650282166758,1.9185320215749255,-0.0
211,2.0185010863402812,1.9184891607127716,-0.0
212,2.0509844569834184,1.9184444365531048,-0.0
213,2.0841634140357477,1.9183980058980974,-0.0
214,2.117843882927299,1.9183500988839215,-0.0
215,2.152033286211138,1.9183006692182882,-0.0
216,2.186683136979675,1.9182497521416244,-0.0
217,2.221883192675956,1.918197178843712,-0.0
218,2.257630831675001,1.918142912538003,-0.0
219,2.2939736600829104,1.9180868378663134,-0.0
220,2.330932950527645,1.9180288755389596,-0.0
221,2.3685424656533254,1.917968923151883,-0.0
222,2.4068676673742324,1.9179068220457307,-0.0
223,2.4459877621117685,1.9178423826580773,-0.0
224,2.4860075860683786,1.917775362181338,-0.0
225,2.5269958214564467,1.9177055665080711,-0.0
226,2.5690557355716117,1.9176327312516326,-0.0
227,2.6122748157532434,1.9175566054973008,-0.0
228,2.656748030133863,1.9174769113452623,-0.0
229,2.7028322257936623,1.9173928739418635,-0.0
230,2.750581738060529,1.9173042340339101,-0.0
231,2.8001585008076986,1.9172105136878155,-0.0
232,2.8520707488166774,1.9171105320914024,-0.0
233,2.90672539301112,1.9170032245797055,-0.0
234,2.964672480237568,1.916887159021655,-0.0
235,3.0267932924044887,1.9167601070449272,-0.0
236,3.0945410664884725,1.9166184422479948,-0.0
237,3.170258495481281,1.916456271440631,-0.0
238,3.2573449478119625,1.9162647251361051,-0.0
239,3.3655470307346467,1.9160192233152689,-0.0
240,3.503531493585757,1.9156940270983909,-0.0
241,3.703407619556064,1.9151987497882828,-0.0
242,3.75143717466735,1.9150754472000766,-0.0
243,3.799466729778636,1.9149504768150547,-0.0
244,3.84705629787978,1.914825003461307,-0.0
245,3.8937866611073857,1.9147001966522361,-0.0
246,3.9394494280186985,1.9145767081783631,-0.0
247,3.984028301937647,1.9144546867292236,-0.0
248,4.027515532158992,1.914334257103273,-0.0
249,4.06998131311249,1.91421532330525,-0.0
250,4.111477719373901,1.9140978301111848,-0.0
251,4.152079953010561,1.9139816475812799,-0.0
252,4.191816970270973,1.9138667695758684,-0.0
253,4.230769912864846,1.9137530319933622,-0.0
254,4.269001983328349,1.913640313323948,-0.0
255,4.306563668921141,1.9135285219188527,-0.0
256,4.343477858152264,1.9134176429230265,-0.0
257,4.3797623556313265,1.9133076736582724,-0.0
258,4.41544323879292,1.9131985833755436,-0.0
259,4.4505551428815675,1.9130903113658746,-0.0
260,4.485117443045454,1.9129828403293532,-0.0
261,4.519158063953707,1.912876123489084,-0.0
262,4.552666121236407,1.9127702338417276,-0.0
263,4.559746082737166,1.9127477532247472,-0.0
264,4.565868763941846,1.9127282820745868,-0.1727087660374471
265,4.571991445146526,1.912708782968831,-0.28984932635849003
266,4.579339003105015,1.9126853460438327,-0.35343357392196545
267,4.587829090614144,1.9126582145623954,-0.39150026363812784
268,4.597912505999166,1.9126259214425674,-0.42342761941961005
269,4.609706236569318,1.912588054541406,-0.4568255263761277
270,4.622678072792878,1.9125462850217076,-0.492697451007461
271,4.635930684305769,1.9125034815182433,-0.5292481611995714
272,4.6490418746278515,1.9124610055316218,-0.5653827799831942
273,4.662005070722919,1.9124188825455968,-0.6010066599328073
274,4.674872187585235,1.91237694735692,-0.6362307385094941
275,4.687652548123617,1.9123351721601065,-0.6710843531527131
276,4.700347769120039,1.9122935540762758,-0.7055723261877096
277,4.712958069656923,1.912252094752799,-0.7396942888345166
278,4.725485099061465,1.9122107910924133,-0.7734525367873143
279,4.73792996672414,1.9121696417101886,-0.806848579513475
280,4.75029412526939,1.9121286440269467,-0.8398848251974466
281,4.76258141638062,1.9120877874419793,-0.8725705957342977
282,4.774792333954712,1.912047072378953,-0.9049052100715252
283,4.7869278576727226,1.912006497605785,-0.9368911258882656
284,4.798984831029745,1.9119660757292962,-0.9685206737867101
285,4.8109716662359,1.9119257805175078,-0.9998127728651838
286,4.82288966074308,1.911885609437688,-1.0307696464537688
287,4.834736206212506,1.911845573118782,-1.0613884008096317
288,4.846510123063917,1.9118056774257293,-1.0916637865444243
289,4.85822727894026,1.9117658702648956,-1.1216328060042562
290,4.869881384845503,1.911726174540919,-1.151280153498577
291,4.881468585569144,1.9116866050509047,-1.1805994230934713
292,4.892989183336069,1.9116471624669837,-1.2095917673983525
293,4.904455685350661,1.9116078054977592,-1.2382839760603965
294,4.9158604555617735,1.9115685618115705,-1.2666606625525165
295,4.927208754668771,1.9115294147897322,-1.2947290010278594
296,4.938491578014964,1.9114903970193644,-1.322478454214282
297,4.949712045942584,1.911451499302832,-1.3499072940031622
298,4.96088082004596,1.911412686089859,-1.377047232897242
299,4.971999337408926,1.9113739536369627,-1.4038930129913592
300,4.983056261127309,1.9113353428079354,-1.4304324683845007
301,4.994062398151728,1.9112968172364064,-1.4566807253230676
302,5.005009540179574,1.9112584069874463,-1.4826246088558788
303,5.015909878667958,1.9112200705628115,-1.5082918534403684
304,5.0267775104413115,1.911181759330972,-1.5337045856198943
305,5.037572372510538,1.9111436157888593,-1.5587948081891807
306,5.048325389578003,1.9111055320365187,-1.5836166752227343
307,5.059036929978944,1.9110675077521893,-1.6081700844322706
308,5.0696809274314445,1.9110296367598558,-1.632413780168008
309,5.080288439517073,1.9109918097847607,-1.656395746509403
310,5.090858833654447,1.9109540299366912,-1.680128719427887
311,5.101386389867384,1.9109163185876998,-1.7036001535107463
312,5.111883638941857,1.9108786316941506,-1.7268315901128122
313,5.122322013552751,1.910841072850619,-1.7497736370073076
314,5.1327259711199265,1.9108035551344469,-1.7724711579918364
315,5.143092021245832,1.9107660919577758,-1.794910438107713
316,5.1534123952830635,1.9107287123532086,-1.8170935803927126
317,5.163684589071706,1.9106914264652,-1.8389950790923533
318,5.17389517877223,1.9106542842768435,-1.8606253798059178
319,5.184100582345603,1.9106170813105732,-1.8820475680693844
320,5.194248702970368,1.9105800081774047,-1.9032105683104479
321,5.20439695946125,1.910542855747995,-1.9241785341610023
322,5.214501522726995,1.9105057849526832,-1.9448993803260026
323,5.224545224163697,1.9104688599579618,-1.9653395148891628
324,5.234558377642806,1.9104319703402923,-1.9855395976617294
325,5.2445166286825,1.9103952067750278,-2.005475064026851
326,5.25443536692301,1.9103585134971737,-2.0251707096472984
327,5.264338937441373,1.9103218010378569,-2.0446697067556907
328,5.274258251173352,1.9102849547726315,-2.0640000302776054
329,5.284110443153488,1.910248283065613,-2.0830658467234078
330,5.293903483379709,1.9102117576535131,-2.1018731931507926
331,5.3036940412018465,1.9101751678412968,-2.1204819489629396
332,5.313459479128206,1.9101385985121835,-2.138876113237134
333,5.323160021090887,1.9101021996009184,-2.157013162371199
334,5.332852160102603,1.9100657599235749,-2.1749566110004857
335,5.342548925944634,1.910029230504724,-2.1927323404217165
336,5.352221661290796,1.9099927194892194,-2.210304171653155
337,5.361840276410286,1.9099563412978342,-2.2276220660256887
338,5.371396443190508,1.90992012869452,-2.2446865386151207
339,5.380958110178387,1.9098838247938885,-2.261573598647825
340,5.390513389839675,1.9098474747122547,-2.2782875211381755
341,5.400050299462786,1.909811124279441,-2.29479589218946
