,time,theta,torque
0,0.0,1.9198621771937625,-135.0844310926892
1,0.00955927148455486,1.919843771392461,-172.74385104813365
2,0.016650788123999106,1.9198063274422001,-203.92253139249087
3,0.02134454140547079,1.9197703925707512,-226.0169578202809
4,0.026038294686942475,1.9197255689336472,-249.50974090974225
5,0.03206716526004726,1.9196549434075811,-281.3523220213581
6,0.03600796059344683,1.9196008386546088,-303.16016014820474
7,0.0399487559268464,1.9195404501100988,-325.20502542738035
8,0.043882379208859845,1.9194738984079676,-348.7299378244004
9,0.04708851429107945,1.9194150140698807,-369.91674630727596
10,0.050294649373299055,1.9193519573832827,-391.57521469090807
11,0.054136364330067244,1.9192708991785221,-417.91108209417837
12,0.058269188213440674,1.919176993607198,-447.648014612986
13,0.06388947098422625,1.919038118770159,-489.44939568335025
14,0.06760327363340667,1.9189392745105338,-518.8016985168612
15,0.07131707628258709,1.91883478742197,-549.6315263996406
16,0.07672407808910496,1.9186725540961367,-595.9283150437528
17,0.0809501179658463,1.9185373921412137,-633.1720402144872
18,0.08517615784258763,1.9183948752617295,-671.9770651018572
19,0.09068580796672888,1.918197997283033,-723.9452947860539
20,0.0967782567506775,1.917965657701316,-783.7788363973759
21,0.10341138206105907,1.9176951562499343,-851.7018318377346
22,0.11017164761288961,1.9174005741749534,-923.7417820715632
23,0.11747689172381849,1.9170607003618374,-1004.5436250970727
24,0.12478735311019255,1.916698067227289,-1087.4351234486714
25,0.1295411831761162,1.9164501108368175,-1142.4575611484274
26,0.13266829560309992,1.916281764044182,-1179.3249987508561
27,0.13579540803008364,1.9161092477051156,-1215.8811588351434
28,0.13893929072066383,1.915931592420703,-1251.873777919817
29,0.1393180808466244,1.915909901947821,-1256.515249985754
30,0.13969687097258496,1.9158881499651041,-1261.0417824930787
31,0.14029556639351026,1.9158536444579786,-1267.7873961950042
32,0.1410732394156373,1.915808594040845,-1278.109153249674
33,0.14202961780193898,1.9157528352525102,-1290.9922199112816
34,0.1436266056813714,1.9156588514659598,-1312.3175841519335
35,0.1459919277915503,1.9155176341333606,-1344.2345823441135
36,0.1495718685894322,1.9152993108183096,-1393.5208868265652
37,0.15462927385399478,1.9149814350790093,-1464.0504525369051
38,0.16034493519872317,1.914608810201014,-1545.3864839141715
39,0.16725615629463633,1.9141391857069865,-1645.648924903361
40,0.17334345901055723,1.9137081694170877,-1734.8955820017848
41,0.17943076172647812,1.913260779675064,-1824.6969315049726
42,0.185867674442892,1.9127697785668951,-1919.8574813824482
43,0.1903225080499293,1.9124191258264578,-1986.0788434344163
44,0.1947773416569666,1.9120595590655465,-2051.3491126358635
45,0.1992889227763638,1.9116862865859596,-2117.2074905952036
46,0.2023776619178107,1.9114254181714563,-2163.483119965404
47,0.2054664010592576,1.9111602127119884,-2209.120074675459
48,0.20885123893897936,1.9108645869166605,-2260.0226429687145
49,0.21320015328301373,1.9104770626412924,-2325.0446753970623
50,0.2165412956965418,1.910173436469357,-2374.5960284592475
51,0.21988243811006986,1.9098646617649722,-2422.8937304723086
52,0.22219157240747486,1.9096482430193227,-2458.76997873989
53,0.22450070670487987,1.9094293507457991,-2494.4254544975342
54,0.2274028498698125,1.9091507277133624,-2538.587927276679
55,0.23058729562700297,1.9088404815447266,-2586.1151029200746
56,0.23398831880682397,1.9085038945254222,-2637.8362108852452
57,0.23832338293057717,1.908066992054862,-2703.8227710985375
58,0.24132153358906688,1.9077596451226992,-2750.998801500147
59,0.2443196842475566,1.90744804480821,-2799.7063491961653
60,0.2485832295855679,1.906997579927076,-2870.086525715235
61,0.2519932654154633,1.9066310566896434,-2928.456097416606
62,0.25481714404601546,1.9063233253877427,-2979.500800170457
63,0.25764102267656763,1.9060117676403718,-3031.765528302672
64,0.26224301508759906,1.905495803002877,-3119.263335594811
65,0.2668450074986305,1.9049695978842724,-3209.811599141417
66,0.27198252370613907,1.9043700026682209,-3315.0918791986683
67,0.27704406819042887,1.9037666686678163,-3422.66242262522
68,0.2821056126747187,1.903150758540828,-3534.0341890737654
69,0.28635520964177547,1.902623890888925,-3630.6175559432963
70,0.28938402775733807,1.90224291687712,-3701.998718468459
71,0.2919506750180524,1.9019165080127012,-3764.1404895613455
72,0.2945173222787667,1.9015868169706724,-3827.390091217673
73,0.2977084930628741,1.9011723148938597,-3907.461998641047
74,0.3007735513447639,1.9007693899626388,-3985.888970284837
75,0.30336996057579063,1.9004243796535187,-4054.8432907845418
76,0.30596636980681735,1.9000759732787995,-4125.141016068907
77,0.30777912265582014,1.8998307063007889,-4175.540567469632
78,0.3095918755048229,1.899583776975715,-4226.603566107002
79,0.31339095295562036,1.8990608696375595,-4335.349050878689
80,0.3182354715126139,1.8983834165805984,-4477.854215420447
81,0.32272490082542077,1.8977449178160744,-4613.414459779997
82,0.32721433013822765,1.8970960822035545,-4752.236894388453
83,0.3328274489451455,1.8962702408299024,-4930.323329086234
84,0.33909682612636594,1.8953285694600532,-5135.283626314889
85,0.34317502312036824,1.8947050482882806,-5271.94808023733
86,0.34725322011437054,1.8940728465681214,-5411.148845869112
87,0.3519731349067103,1.8933302913816001,-5575.393383272486
88,0.35270625538534056,1.8932139045298513,-5601.1018689190505
89,0.35286788506714645,1.8931882069197183,-5598.298961679367
90,0.35301774607625264,1.8931643681426094,-5594.845198945046
91,0.3533896576375685,1.893105156170324,-5586.27964107536
92,0.3543791668925063,1.8929472621094188,-5563.588088663157
93,0.3566458788527503,1.8925836233708373,-5511.881917571768
94,0.36010664175043106,1.892023198948418,-5433.836267356075
95,0.3660659568619185,1.8910433143387178,-5302.002193905626
96,0.3737074659120605,1.8897592173787854,-5137.6088324343045
97,0.38187789669513483,1.8883517469270032,-4967.398335713664
98,0.39190933700379554,1.8865746722318568,-4766.0870043568475
99,0.40216179091257087,1.884702302282032,-4569.165983777487
100,0.4146114831367074,1.8823519170616152,-4341.824024159554
101,0.435212163654024,1.8782766625231249,-3993.3839375803605
102,0.4408877246883508,1.8771129810303087,-3903.342948297851
103,0.4465632857226776,1.8759315655170778,-3815.906896388488
104,0.4478696813032139,1.8756571153807409,-3796.1725544766064
105,0.4491760768837502,1.875381724381024,-3776.532856356024
106,0.4496639486289007,1.8752786386371691,-3771.360762088293
107,0.45015182037405116,1.8751754216400276,-3770.0029472982214
108,0.45075241630136303,1.8750481757959276,-3767.6462013795535
109,0.45137694564603653,1.874915648280663,-3766.0920011204994
110,0.4520833712583573,1.8747654827625544,-3765.0075854889865
111,0.452956128854102,1.874579579767551,-3762.24349192386
112,0.4539976742529823,1.8743571738941924,-3758.8113900911385
113,0.4550146965969683,1.874139426962559,-3756.575836053223
114,0.45610939785467364,1.8739044109717498,-3755.073704630508
115,0.4573286182389893,1.8736418841163414,-3754.1856795173203
116,0.45855065612511847,1.8733779272917772,-3752.025674259853
117,0.45977269401124765,1.87311314614228,-3749.880627531732
118,0.46073345568663804,1.8729043973339072,-3748.2660052864103
119,0.4616942173620284,1.872695138933822,-3745.7772482587525
120,0.46215639645543677,1.8725942926173909,-3739.422684197927
121,0.4624161694401679,1.8725375590333198,-3738.433717779935
122,0.462675942424899,1.8724807881916556,-3738.0821763383137
123,0.4630697010936334,1.87239466505164,-3737.7548088283465
124,0.46359607866180647,1.8722794017155953,-3737.495239263751
125,0.4643208750840347,1.8721204393319562,-3737.52934416259
126,0.4652342603489787,1.8719197025485552,-3737.930365466999
127,0.4664021094383711,1.8716623706363387,-3739.010258745381
128,0.46779604943560754,1.8713542344120309,-3740.6957401837503
129,0.46897083033115733,1.8710937110873305,-3740.221064125085
130,0.46976139616742246,1.8709179636191018,-3739.3821931742996
131,0.4705519620036876,1.8707418710601897,-3737.624280203556
132,0.47161028796122584,1.8705055967683464,-3734.3785235744294
133,0.4731103348977881,1.8701696475864824,-3730.7269210024056
134,0.4749307128403327,1.8697602888621818,-3727.3400631855698
135,0.4757782287758473,1.869569079047039,-3725.190112210134
136,0.4760698596055634,1.8695031919260852,-3724.4210851908315
137,0.47636149043527953,1.8694372578605694,-3724.040383766553
138,0.4767928068761667,1.8693396565782563,-3723.7159439091247
139,0.4773603629651256,1.8692110695898887,-3723.496100110742
140,0.47813049156859805,1.8690363029583346,-3723.693504869946
141,0.479108668882118,1.8688138515785082,-3724.335343997113
142,0.48005655168908073,1.8685977858770222,-3724.4413063010966
143,0.48100443449604346,1.8683812244294642,-3724.3328196570405
144,0.4823051975891496,1.8680832340880622,-3724.848338410268
145,0.48380182964071283,1.8677392176684737,-3726.004824106775
146,0.48551031003051337,1.8673449957935275,-3727.4890878522065
147,0.48702555965243516,1.866994014204084,-3725.738882135811
148,0.48737072534034354,1.8669138855049534,-3721.039789161698
149,0.4877158910282519,1.8668336911411711,-3717.0674540877344
150,0.4880579772074635,1.866754147473293,-3715.982970639282
151,0.48828633545501166,1.8667010125248373,-3712.833296676247
152,0.4885146937025598,1.8666478488397915,-3709.4210923679675
153,0.48911843730362514,1.866507153934617,-3700.418053609404
154,0.4895753892641482,1.866400533461563,-3693.644616783922
155,0.4900323412246712,1.8662937979529755,-3690.9366855636554
156,0.49047036793155396,1.8661913750552266,-3689.643548962375
157,0.4909757676134044,1.8660730671542234,-3688.6801711649205
158,0.4916266051585107,1.8659205067957532,-3687.364019303664
159,0.4925403124768245,1.8657059345299511,-3685.7529329209146
160,0.49320036442709675,1.865550643964714,-3683.708509135234
161,0.493860416377369,1.865395113572205,-3682.3877816255817
162,0.49462370406301753,1.8652149583997362,-3681.4958823803245
163,0.4955691822882273,1.8649913571417691,-3680.303061924362
164,0.4968407341885341,1.8646898655174078,-3678.9137412787463
165,0.4983433442879653,1.8643324425419698,-3678.2707471550198
166,0.49931064068179754,1.8641016968801878,-3676.8012583758778
167,0.5002779370756298,1.8638704369977201,-3675.934240182587
168,0.5009388239823199,1.8637121374623302,-3674.449181091354
169,0.50159971088901,1.8635535980057734,-3673.458531903433
170,0.502380057105681,1.863366092759793,-3672.782529783439
171,0.5033553883730802,1.8631312655130452,-3671.8888767020353
172,0.5046543401707114,1.8628177105271384,-3670.885988178499
173,0.5061922103061293,1.8624452861524645,-3670.6016014020906
174,0.5078966928878449,1.862030998281586,-3670.4868931941915
175,0.5098459631997843,1.861555261513083,-3670.6861820023164
176,0.5120065576454048,1.8610255182033961,-3671.277661819633
177,0.5135895575214608,1.8606357707551389,-3671.5541232481496
178,0.5149259179172435,1.8603056815059944,-3670.4738717427467
179,0.5157421198311065,1.8601035946066813,-3669.0042350372773
180,0.5165583217449695,1.8599011438629327,-3668.198356377443
181,0.5175198022830304,1.859662191643201,-3667.7653223193215
182,0.5186540677937095,1.8593796494043868,-3667.841441097384
183,0.5199777705071245,1.8590490316740593,-3667.3255537297373
184,0.5216205161459367,1.8586373994851015,-3666.814283299395
185,0.5234924869424356,1.8581665375963061,-3665.786149048375
186,0.5255520929077797,1.857646276744673,-3664.016369439998
187,0.5277751231181624,1.8570821479024375,-3661.9389390355705
188,0.5294169061438017,1.8566637976540794,-3660.5736208513567
189,0.530662666890314,1.8563453844087492,-3659.644472280404
190,0.5319084276368264,1.8560261303798289,-3657.822733153117
191,0.5334312652063617,1.8556347280968555,-3655.9360601748836
192,0.5345043977826075,1.8553581563657782,-3653.46663843234
193,0.5355775303588532,1.8550809622587339,-3651.9012383153
194,0.536754994817954,1.85477610329047,-3649.0780712527185
195,0.5383242810228943,1.8543686343138186,-3645.907180386277
196,0.5401225477425389,1.8539000779581747,-3643.0650950711283
197,0.542095475353914,1.8533840093451528,-3640.8787824292626
198,0.5436367792054285,1.8529793867287845,-3639.5305964821864
199,0.5448262557312217,1.8526662535967502,-3638.6958735194908
200,0.5452164146424472,1.8525633777934165,-3637.2533507800113
201,0.5456065735536727,1.8524604203546577,-3636.2355389216823
202,0.5461038595316837,1.852329075296959,-3635.501309776425
203,0.5467166389693912,1.8521670434040889,-3635.037926408053
204,0.5475087263655343,1.851957300664179,-3634.3923765598024
205,0.5478008976898543,1.8518798496343172,-3631.701050773273
206,0.5480930690141743,1.8518023529188337,-3629.9688522529764
207,0.5483962787786157,1.8517218800267026,-3629.2725615877175
208,0.5488100386759591,1.8516119874156476,-3628.714291148025
209,0.5493383133125533,1.8514715471935033,-3628.3281854525735
210,0.5500423798487668,1.851284141349843,-3627.6896841907437
211,0.5510328788007706,1.8510200456949473,-3626.016166295058
212,0.5522824866032305,1.850686117123876,-3624.0823755580705
213,0.5533694431894628,1.8503949761879106,-3622.61028074089
214,0.554456399775695,1.8501032058953069,-3620.296954195241
215,0.5557798346182464,1.8497471092972189,-3617.8825933082526
216,0.5565262884452769,1.8495458502594744,-3615.984731607143
217,0.5572727422723073,1.8493442952441796,-3614.6910913267557
218,0.5581263686397175,1.8491134393387714,-3613.8477071075126
219,0.5591218686353697,1.8488437267578028,-3613.5072471519293
220,0.5601277971793531,1.848570655308347,-3611.887525813467
221,0.5608261018406693,1.8483807770210992,-3610.13117013321
222,0.5615244065019854,1.8481906407448307,-3609.1430673997456
223,0.5623460519421946,1.8479665907777383,-3608.5289266346185
224,0.5633218734127419,1.847700036108688,-3607.04770837666
225,0.5645394213440142,1.8473667469408317,-3605.395844369791
226,0.5656205516590315,1.8470701454067349,-3604.185466738866
227,0.565909648398257,1.846990729149324,-3601.53896561478
228,0.5661987451374825,1.84691126889538,-3599.969656987032
229,0.566500310303604,1.8468283347376593,-3599.331688718527
230,0.5669161869588324,1.8467138850210538,-3598.836676719425
231,0.5673220392626649,1.8466021063264726,-3597.4316549437367
232,0.5676250345317967,1.8465185997739835,-3593.2903345123896
233,0.5679280298009285,1.846435044978014,-3588.820911886626
234,0.5681879456192797,1.8463633314572738,-3585.866068075259
235,0.5684478614376308,1.8462915824569919,-3582.244518745953
236,0.5687568764746881,1.8462062336086058,-3577.658584180918
237,0.5696093842947546,1.8459705141800158,-3565.0804843593583
238,0.5704868211989739,1.8457275038354541,-3552.2281458567654
239,0.5709611771543021,1.845595960688492,-3545.29438845157
240,0.5714355331096302,1.8454642997146766,-3540.1791713432585
241,0.5717484800878694,1.8453773745066322,-3535.864110869365
242,0.5720614270661085,1.8452903980587922,-3531.2635885452196
243,0.5728909342337404,1.845059607753261,-3519.139023328881
244,0.5733957443652566,1.8449189805363955,-3511.8112877492376
245,0.5739005544967729,1.8447782202318321,-3508.905187621921
246,0.5742351278115971,1.8446848551427466,-3504.3859941687524
247,0.5745697011264214,1.844591431647385,-3499.5348071607705
248,0.5751868005150932,1.8444189647619025,-3496.56336981603
249,0.5754025428966557,1.844358622266726,-3495.5182652957023
250,0.5756182852782182,1.8442982555178156,-3494.9787651685256
251,0.5758856459766729,1.8442234118345553,-3491.3987373957716
252,0.5761530066751276,1.8441485309236862,-3487.513831232814
253,0.5769490810719988,1.8439253504582587,-3476.0079876026307
254,0.5772419986365568,1.8438431476694341,-3471.7688896215645
255,0.5775349162011147,1.843760900264976,-3467.54004308632
256,0.5779160296889556,1.8436538218402987,-3462.034895269439
257,0.5782971431767965,1.8435466679469952,-3456.547741418966
258,0.5788753517001156,1.8433839547711954,-3448.1845450845094
259,0.5802848015980129,1.842986595895581,-3427.951498340472
260,0.5810687804408621,1.8427651272102374,-3416.7255964391675
261,0.5814590445800315,1.8426547616171114,-3411.1419641155044
262,0.5818493087192009,1.8425443172184057,-3405.5776544782348
263,0.5826810333703134,1.8423086771243502,-3393.731207064715
264,0.5831084790884903,1.842187436267586,-3391.4940766490176
265,0.5835359248066672,1.842066101062852,-3390.46096137989
266,0.5841077651344879,1.8419036303953265,-3388.7769891395164
267,0.585116688378452,1.8416165649925769,-3386.8785293024202
268,0.5854178515968339,1.8415307744285923,-3382.956242355017
269,0.5856050651266521,1.8414774204902342,-3382.1467694478292
270,0.5857922786564703,1.841424048509146,-3381.779580093464
271,0.58609534717944,1.8413376096411425,-3381.475653696073
272,0.5865672816761953,1.841202914044539,-3381.241386695249
273,0.587112920425538,1.8410470396622571,-3380.4657560609926
274,0.5876585591748806,1.8408910123083306,-3379.3146899611806
275,0.5885299016852169,1.8406415318696943,-3378.123738618619
276,0.5895838376397919,1.8403392514662684,-3377.230043562711
277,0.5908533812910908,1.8399743770826862,-3375.626254272634
278,0.5925050756183375,1.8394984369684837,-3373.84854292145
279,0.5944350040362807,1.8389405598540935,-3372.190024460038
280,0.5966328002236277,1.8383029432799123,-3370.8185463922714
281,0.5983383149618013,1.8378064565089445,-3369.8386354710715
282,0.6000438296999749,1.8373084975364333,-3368.975665211812
283,0.6014452820925896,1.8368982162308403,-3368.333852484053
284,0.6025446571698934,1.8365756766103893,-3365.4829350553455
285,0.6036440322471971,1.8362525289671128,-3362.6093437101918
286,0.6053720814056938,1.8357433637783385,-3359.0088823578744
287,0.6074999830518405,1.8351143282863824,-3354.624520503119
288,0.6099675115189287,1.83438206401764,-3349.7703561670014
289,0.6118902381009858,1.833809375127872,-3346.632390457684
290,0.6133066283750147,1.8333863266618025,-3344.5049958988157
291,0.6147230186490437,1.8329622854893581,-3343.160263032745
292,0.6156242277641708,1.8326919643470638,-3340.616132931682
293,0.6165225663276154,1.8324221057639924,-3337.9823260060534
294,0.6174994816350637,1.8321281920572507,-3336.1309531859856
295,0.6186567069486525,1.83177942366324,-3333.9304591803616
296,0.6202782635730186,1.8312896087439539,-3329.7759379804666
297,0.6220295709709946,1.8307591560637342,-3325.6098338820566
298,0.624495803687878,1.8300096245849775,-3320.917520692557
299,0.6282734792224707,1.828855799627088,-3314.387001053486
300,0.62887294260335,1.8286720699445318,-3312.98611948717
301,0.6292768602990864,1.8285481754515804,-3307.683982661366
302,0.6296807779948227,1.8284242024007162,-3301.930979269449
303,0.6307795875214998,1.8280865515446945,-3286.3884800889873
304,0.6332520903504644,1.8273246631071505,-3251.7187330599504
305,0.6347454254577547,1.8268630836455908,-3236.5807413194575
306,0.636238760565045,1.8264004412116783,-3231.3535672892335
307,0.637814965892444,1.8259109754159946,-3227.682404297673
308,0.6387850881743524,1.825609133663641,-3224.9194752429044
309,0.6397552104562608,1.8253068467665412,-3222.9207846420804
310,0.64087836644076,1.8249563201655852,-3221.290151127897
311,0.6422416104998511,1.8245300660887032,-3219.1969587475337
312,0.6441416463860787,1.823934514052687,-3216.4760252281576
313,0.6465613717408569,1.8231736241878465,-3213.3745163635676
314,0.6494290811289194,1.822268334806041,-3211.024779375278
315,0.652438847583438,1.8213141059797313,-3208.7979610632024
316,0.6557600902059354,1.8202562901592705,-3206.5480571207645
317,0.6593537492644599,1.819106035846467,-3203.502127296903
318,0.6607659166488239,1.8186524266623731,-3200.927899044616
319,0.6613984120733923,1.8184489674551723,-3199.5142105450177
320,0.6617094484220876,1.8183488480215166,-3195.5404562088643
321,0.6620204847707828,1.818248684979451,-3191.22971346223
322,0.6628372219167117,1.8179854637263166,-3179.9406804520167
323,0.6633013593864213,1.8178357459974603,-3173.530493611549
324,0.663765496856131,1.8176859315138358,-3167.1373531860067
325,0.6644067157800718,1.8174787996268322,-3158.234761731691
326,0.6661417806836891,1.8169174016998928,-3134.361991234556
