,time,theta,torque
0,0.0,1.9198621771937625,-135.0844310926892
1,0.009555081371687249,1.919843787525393,-172.7245519194874
2,0.016637570018450468,1.919806416092968,-203.8571923001223
3,0.02132548885285981,1.919770556397994,-225.9200494508199
4,0.026013407687269154,1.9197258300466475,-249.37784535374607
5,0.031969641166740004,1.9196562027279445,-280.8240561460537
6,0.03592403854264686,1.919602056316349,-302.70125835007127
7,0.03987843591855372,1.919541582790502,-324.81836334250323
8,0.043868723037214445,1.919474140301521,-348.66236466690486
9,0.047005192366725464,1.9194165971608872,-369.41039914249245
10,0.05014166169623648,1.9193550611301804,-390.61961661227747
11,0.0538800803433334,1.919276493484655,-416.2694648586374
12,0.05804057942410601,1.919182369791142,-445.11984861013417
13,0.06063927439886228,1.9191200010534921,-464.09660035244144
14,0.06323796937361856,1.9190548776467589,-483.0629091485137
15,0.06613554248303505,1.9189790125781672,-504.1600045866437
16,0.06783598971997962,1.9189328929071026,-517.2576284627901
17,0.06953643695692419,1.9188855901162702,-530.2841626474095
18,0.07152382440729296,1.9188288045994162,-545.314724331243
19,0.07369991859027594,1.9187647703834882,-563.1296308640376
20,0.07677293225535628,1.918671033546468,-588.4927754595933
21,0.08012356393517778,1.9185644059865832,-616.1208370612078
22,0.08355345053503194,1.9184504695648787,-644.0908094186092
23,0.08397571164028521,1.9184361073700402,-647.672157745106
24,0.08439797274553848,1.9184216716256928,-651.0684934361396
25,0.0844008512967515,1.918421572964876,-645.1715191391644
26,0.08440347399170738,1.91842148307042,-639.1860088241425
27,0.0844076885295501,1.918421338608642,-629.4734313386004
28,0.08441384737483724,1.918421127488628,-615.2400726967015
29,0.08442218678205468,1.9184208415958504,-596.0645163495016
30,0.08443280753467607,1.9184204774521136,-571.9676547560083
31,0.08444568345277495,1.9184200359252293,-543.3798085771533
32,0.08446068272663113,1.9184195215002986,-511.04530391157186
33,0.08447761024923912,1.91841894083139,-475.86756751477594
34,0.08449622654194963,1.9184183020956815,-438.81121799295937
35,0.08451628634857765,1.9184176136721207,-400.78157479967064
36,0.08453755742718022,1.9184168834980804,-362.5702327471657
37,0.08455981698457794,1.9184161191925386,-324.8576212041299
38,0.08458288224838927,1.9184153270065256,-288.1684408982691
39,0.0846066173353727,1.918414511585981,-252.8845276536441
40,0.08463089708861395,1.9184136772128657,-219.31943768767204
41,0.08465564025163747,1.9184128266644205,-187.68603968565432
42,0.08468077972214037,1.9184119622341347,-158.15400761855946
43,0.08470627842865792,1.91841108518497,-130.84161832871536
44,0.08473211717257392,1.9184101961662412,-105.84234513032368
45,0.08475830321702023,1.9184092949170513,-83.22628858103411
46,0.08478483967458052,1.91840838131896,-63.07311934029312
47,0.08481175751088481,1.918407454293852,-45.44860570964296
48,0.08483909992902261,1.9184065123404122,-30.424606101612426
49,0.0848668963078563,1.918405554431651,-18.09278862269124
50,0.08489523217460494,1.9184045776030434,-8.534788071909462
51,0.08492418812165775,1.9184035790559453,-1.8595985976814458
52,0.08495384070649403,1.9184025561266393,-0.0
53,0.0849843259642958,1.9184015040941789,-0.0
54,0.08501572843928325,1.9184004200079183,-0.0
55,0.08504821233357705,1.9183992981602895,-0.0
56,0.08508195133932249,1.9183981325056656,-0.0
57,0.0851171513287031,1.9183969158744747,-0.0
58,0.0851540236188955,1.9183956408944465,-0.0
59,0.08519288651432509,1.9183942964752914,-0.0
60,0.08523411858860126,1.918392869415412,-0.0
61,0.08527817721735317,1.9183913437516895,-0.0
62,0.08532549448401239,1.918389704355356,-0.0
63,0.08537664199257029,1.9183879312135526,-0.0
64,0.0854324009216495,1.9183859969762402,-0.0
65,0.08544918788945814,1.918385414396977,-0.0
66,0.08546461702612351,1.9183848788376339,-0.0
67,0.08548049430191973,1.918384327620373,-0.0
68,0.085495433341893,1.918383808881164,-0.0
69,0.08563382375787647,1.9183789990693452,-0.0
70,0.08651654520863633,1.9183481336487622,-0.0
71,0.08891344201399215,1.9182626992099117,-0.0
72,0.09300214561686777,1.9181114761335172,-0.0
73,0.10170455542047048,1.9177665128378487,-0.0
74,0.11804666089752662,1.9170332480508352,-0.0
75,0.15028182541248156,1.9152553559980605,-0.0
76,0.19027115063568056,1.9124232190119728,-0.0
77,0.23799909876995057,1.9080999807237298,-0.0
78,0.31359477508187683,1.899032607818954,-0.0
79,0.3961380710273109,1.8858092872537586,-0.0
80,0.4588811373574301,1.8733064009355918,-0.0
81,0.49197754308566954,1.8658381458698012,-0.0
82,0.525073948813909,1.8577672600348978,-0.0
83,0.5619122202070858,1.8480849315191374,-0.0
84,0.588223250795918,1.840729372555558,-0.0
85,0.6118786573917604,1.833812826506041,-0.0
86,0.6355340639876028,1.8266188881644818,-0.0
87,0.6472843603543856,1.822945744734793,-0.0
88,0.6590346567211685,1.8192084040942202,-0.0
89,0.6704221654828061,1.8155267022385553,-0.0
90,0.6856733732402713,1.8105063779465917,-0.0
91,0.6978384054678037,1.8064308447187523,-0.0
92,0.7084277289542641,1.8028335461731413,-0.0
93,0.7190170524407244,1.7991914648914866,-0.0
94,0.7293285348509615,1.7956032431386932,-0.0
95,0.7405476148494466,1.7916540073930387,-0.0
96,0.7512764095152473,1.7878348501719128,-0.0
97,0.7618809258466696,1.7840206024535192,-0.0
98,0.7724854421780918,1.7801687325879814,-0.0
99,0.7818137660106863,1.7767504804842598,-0.0
100,0.7911420898432808,1.7733052596211645,-0.0
101,0.8011441818453806,1.7695823688012469,-0.0
102,0.8160412963363024,1.7639847593585987,-0.0
103,0.8288163298259041,1.7591369154573566,-0.0
104,0.8415913633155059,1.7542476818528834,-0.0
105,0.8564625699102856,1.7485072016012029,-0.0
106,0.8746532397190546,1.7414186550677564,-0.0
107,0.8906082924960139,1.735145414090705,-0.0
108,0.9065633452729732,1.728824020409348,-0.0
109,0.9339156678370214,1.7178850796229492,-0.0
110,0.9603849075918618,1.7071891090220632,-0.0
111,0.9741695566140948,1.701579887656152,-0.0
112,0.9848492975291844,1.6972169037149412,-0.0
113,0.995529038444274,1.6928394651958372,-0.0
114,1.0067061359798268,1.6882431592067277,-0.0
115,1.0178616228280217,1.683640830456635,-0.0
116,1.026737806120747,1.6799684252573324,-0.0
117,1.0340490766224635,1.6769366324903237,-0.0
118,1.04136034712418,1.6738987034526567,-0.0
119,1.0503125146439203,1.670170647973025,-0.0
120,1.0601050377381331,1.6660821799191607,-0.0
121,1.0716016394191445,1.6612682853225436,-0.0
122,1.085260785044899,1.6555291476531784,-0.0
123,1.1032926332498163,1.647919382222601,-0.0
124,1.1163212630374277,1.6423968766905628,-0.0
125,1.1270284344184291,1.637842768058035,-0.0
126,1.1374248868232737,1.6334069972631404,-0.0
127,1.1508947091063382,1.6276391227624403,-0.0
128,1.1618181561769594,1.622943873745558,-0.0
129,1.1722413108920087,1.6184484125918037,-0.0
130,1.1849867555114209,1.612930547360594,-0.0
131,1.2024753080104387,1.605320815397544,-0.0
132,1.2186272284654216,1.5982519080474948,-0.0
133,1.2347791489204045,1.5911427280514974,-0.0
134,1.2425582378403741,1.587704192688868,-0.0
135,1.2503373267603437,1.5842560760330509,-0.0
136,1.2608880148688173,1.5795640789375318,-0.0
137,1.2748860323653397,1.573311783130461,-0.0
138,1.2882088281552697,1.5673325401322,-0.0
139,1.3015316239451997,1.5613261294547338,-0.0
140,1.3152847740783702,1.555098333199489,-0.0
141,1.3270243281890632,1.5497616014889617,-0.0
142,1.3387638822997563,1.5444072267640463,-0.0
143,1.3541725492782624,1.5373555996789598,-0.0
144,1.371349351913162,1.5294687809952763,-0.0
145,1.3916965213407486,1.520102822976192,-0.0
146,1.414616510406669,1.509545101483015,-0.0
147,1.4428619687027269,1.496574725632406,-0.0
148,1.468132744140793,1.4850738561645989,-0.0
149,1.4804443506944642,1.479529778227018,-0.0
150,1.4924587458235217,1.474169899830831,-0.0
151,1.5046886372361932,1.4687759104672906,-0.0
152,1.5160330147920986,1.4638388051734856,-0.0
153,1.526832642807834,1.4592077034396755,-0.0
154,1.5396897502201088,1.4537952575916615,-0.0
155,1.556700353017762,1.4468303978424697,-0.0
156,1.5742833839950565,1.4399066759134684,-0.0
157,1.582242496293893,1.4368774989969884,-0.0
158,1.5902016085927295,1.433920220384285,-0.0
159,1.6059669328062158,1.428293399299816,-0.0
160,1.614769171907985,1.4252965295824107,-0.0
161,1.620360408935028,1.4234506717268731,-0.0
162,1.625951645962071,1.4216517107593443,-0.0
163,1.6321983492917485,1.419699391413259,-0.0
164,1.6400123926797476,1.4173461535828464,-0.0
165,1.6487332756875286,1.4148417188335696,-0.0
166,1.6574541586953095,1.4124718309525073,-0.0
167,1.666744603273261,1.4101019422454655,-0.0
168,1.6760350478512123,1.4078986033760799,-0.0
169,1.6871885324411056,1.4054828512637787,-0.0
170,1.6977838778725813,1.4034291854267407,-0.0
171,1.7094450383640023,1.4014509997701485,-0.0
172,1.7227596332989625,1.399566365339794,-0.0
173,1.7359491127958278,1.398104811230196,-0.0
174,1.7472340847551298,1.3971822944058883,-0.0
175,1.7585190567144318,1.396567301710971,-0.0
176,1.7782417364590188,1.3962394950496109,-0.0
177,1.7899148940949217,1.3964948831124202,-0.0
178,1.8015880517308245,1.3970831036575528,-0.0
179,1.816691767918398,1.3983326081276617,-0.0
180,1.8317648173273886,1.400118104403009,-0.0
181,1.8482906543706683,1.4026748428785685,-0.0
182,1.8649501273271059,1.405859974716977,-0.0
183,1.8834478779790464,1.4100714051652867,-0.0
184,1.9013201894126144,1.414768226787654,-0.0
185,1.9201781793441974,1.420336363193066,-0.0
186,1.9496380703928453,1.430145073607887,-0.0
187,1.9814964696889927,1.4420251554634829,-0.0
188,2.01119693929653,1.4540327330647638,-0.0
189,2.0431779892739024,1.4677039284595275,-0.0
190,2.073309561600028,1.481072863651049,-0.0
191,2.104355731654999,1.4951576144626217,-0.0
192,2.135069690445564,1.5092549271798832,-0.0
193,2.16664733000097,1.5237998759317282,-0.0
194,2.196347178710624,1.5374487375384769,-0.0
195,2.2259779560765343,1.5509841303704917,-0.0
196,2.257957945516346,1.5654645360307404,-0.0
197,2.2940730720873628,1.5816317270746818,-0.0
198,2.327709823877169,1.5965041248546565,-0.0
199,2.3691525792382073,1.6145879761283213,-0.0
200,2.410898890869282,1.6325551690317757,-0.0
201,2.452951478006578,1.6504251556206586,-0.0
202,2.5036297287288556,1.67168163274316,-0.0
203,2.5570229068826826,1.6937568820434152,-0.0
204,2.6054932904637633,1.7134898185400054,-0.0
205,2.66987597116642,1.739148973064981,-0.0
206,2.7421257611684435,1.7669422658479932,-0.0
207,2.831945998455641,1.7994150734345693,-0.0
208,2.9612372398950497,1.8404840290444342,-0.0
209,3.079789882228552,1.8707474945555396,-0.0
210,3.1957423081138012,1.8929160306219883,-0.0
211,3.3052136455735766,1.907365869588268,-0.0
212,3.39857907996092,1.9151644514343,-0.0
213,3.4918502024686378,1.9191722046282405,-0.0
214,3.5424187723452976,1.9198494578771592,-0.0
215,3.5929873422219574,1.919494885989728,-0.0
216,3.6874706558672994,1.9160327550587972,-0.0
217,3.7727357727627795,1.909626479419502,-0.0
218,3.8666109942496036,1.8986559122860003,-0.0
219,3.9697704952216673,1.8814144008056224,-0.0
220,4.08824882247158,1.8544699497590509,-0.0
221,4.2381313942941965,1.8097926612182917,-0.0
222,4.359483914492473,1.7665744122171894,-0.0
223,4.480836434690749,1.719248807654391,-0.0
224,4.600918451836573,1.6700490741062806,-0.0
225,4.733429347976686,1.6137423968598659,-0.0
226,4.855356657593855,1.5597390703504068,-0.0
227,4.977283967211025,1.5038632059929968,-0.0
228,5.0,1.4934565378836233,-0.0
