,time,theta,torque
0,0.0,1.9198621771937625,-135.0844310926892
1,0.013385659083907268,1.9198260855523681,-189.16529193738256
2,0.03219431270258739,1.919653295789177,-280.1539092297509
3,0.059413078439498945,1.9191497728467226,-442.0107895030443
4,0.09668431477045784,1.9179693571773977,-718.5333060516683
5,0.1343668135650819,1.9161885782638348,-1055.3211304849472
6,0.17104836015917868,1.9138725934966783,-1425.3691712353072
7,0.19870680954302686,1.9117349659964527,-1717.8841853490621
8,0.20355212297977532,1.9113250882620163,-1769.3697640954927
9,0.20839743641652378,1.9109045251182293,-1820.5995783736112
10,0.21433146643013457,1.9103748299787953,-1882.5204068888956
11,0.21551827243285673,1.9102669496754143,-1894.5686525909473
12,0.21551896281137325,1.9102668867314403,-1889.6082127075128
13,0.21551965318988978,1.9102668237872467,-1884.1722895175467
14,0.21552029596726813,1.9102667651828158,-1879.1321279899364
15,0.21552093874464648,1.9102667065781946,-1874.112259804107
16,0.21552168177864603,1.9102666388325333,-1868.3343952038483
17,0.21552242481264558,1.9102665710866178,-1862.5833536367584
18,0.21552328012351313,1.9102664931035755,-1855.9960753115352
19,0.21552413543438068,1.9102664151201962,-1849.4438795029087
20,0.21552528724090386,1.9102663101031505,-1840.6751724736025
21,0.2155257635981619,1.9102662666706496,-1837.066890940721
22,0.21552623995541992,1.9102662232380443,-1833.4692420647625
23,0.2155271033532045,1.9102661445161573,-1826.9753527135545
24,0.21552796675098906,1.910266065793927,-1820.5160933783172
25,0.215529130408167,1.9102659596943294,-1811.8646882207993
26,0.21552961333198897,1.9102659156622577,-1808.2923994919106
27,0.21553009625581093,1.9102658716300784,-1804.730691256536
28,0.21553133174662964,1.9102657589796213,-1795.6664668643434
29,0.21553183574520704,1.9102657130254799,-1791.9884576448287
30,0.21553233974378444,1.9102656670712215,-1788.3217631977168
31,0.21553333924695842,1.910265575936834,-1781.0833216627793
32,0.2155343387501324,1.9102654848019864,-1773.888969831319
33,0.21553525035294777,1.9102654016815053,-1767.3651529685694
34,0.21553616195576314,1.9102653185606413,-1760.877416576669
35,0.2155370296852504,1.9102652394398358,-1754.7350106223987
36,0.21553789741473767,1.9102651603186835,-1748.6248246204837
37,0.2155396959214628,1.9102649963264657,-1736.0620851833205
38,0.21554098899825136,1.9102648784196579,-1727.1136428170669
39,0.2155419854631105,1.910264787558333,-1720.2449326643818
40,0.2155425030250381,1.9102647403649553,-1716.7039118640382
41,0.2155430205869657,1.9102646931714544,-1713.1738244665182
42,0.21554395918314048,1.9102646075859426,-1706.7995941159124
43,0.21554489777931526,1.910264522000025,-1700.4610047484744
44,0.21554679026788576,1.910264349432169,-1687.7877726650465
45,0.21554765914765908,1.910264270202224,-1682.0167680888674
46,0.2155485280274324,1.910264190971931,-1676.2754094600923
47,0.2155497314003013,1.9102640812397367,-1668.372085944206
48,0.21555093477317017,1.9102639715068752,-1660.5247526464077
49,0.21555235963276226,1.9102638415762756,-1651.3043843548191
50,0.21555378449235435,1.9102637116447407,-1642.160939252559
51,0.21555534371973736,1.9102635694592682,-1632.241949536565
52,0.21555690294712038,1.9102634272726755,-1622.4129569922516
53,0.21555854162663152,1.910263277839603,-1612.1784385230724
54,0.21556018030614266,1.9102631284052933,-1602.0408745488207
55,0.21556186891380225,1.9102629744166462,-1591.6940526365217
56,0.21556355752146183,1.9102628204266854,-1581.4475553075936
57,0.21556633807313963,1.9102625668557178,-1564.7900919422607
58,0.2155675429243021,1.910262456978835,-1557.6539713007646
59,0.2155687477754646,1.9102623471012832,-1550.5666732110287
60,0.21557227478444255,1.9102620254484886,-1530.0963078035775
61,0.2155745628471463,1.9102618167808672,-1517.033376289917
62,0.21557576035195863,1.9102617075694017,-1510.2632038966406
63,0.21557695785677097,1.9102615983572755,-1503.5383134617307
64,0.21557922031838783,1.9102613920195635,-1490.9548599827353
65,0.2155814827800047,1.910261185679493,-1478.529344083261
66,0.21558488219522276,1.9102608756430257,-1460.1503058938727
67,0.21558635701439852,1.9102607411336094,-1452.283172277734
68,0.21558783183357427,1.9102606066231909,-1444.4795315640717
69,0.21559043813719686,1.9102603689136393,-1430.8417775554078
70,0.21559304444081945,1.9102601312009577,-1417.3969379808348
71,0.21559892662771282,1.9102595946938572,-1387.7430180880099
72,0.2156011889830348,1.9102593883429395,-1376.585672855908
73,0.21560345133835676,1.9102591819896635,-1365.5626317213482
74,0.21560692741301016,1.9102588649263879,-1348.8820833923583
75,0.21561040348766355,1.910258547857545,-1332.5063604931615
76,0.21561501600822996,1.9102581271196197,-1311.2338165480828
77,0.21561962852879638,1.9102577063718917,-1290.4686070805653
78,0.21562834419333676,1.9102569113142995,-1252.5587869107244
79,0.2156320291314679,1.910256575157512,-1237.032430551056
80,0.21563571406959903,1.9102562389944677,-1221.7935748934913
81,0.21564028092181708,1.9102558223690367,-1203.294713054225
82,0.21564484777403514,1.9102554057339955,-1185.2138018708933
83,0.2156626205708393,1.910253784225937,-1118.608222013128
84,0.21566941195753084,1.9102531645726841,-1094.633653017013
85,0.21567620334422238,1.9102525448981782,-1071.4232295636912
86,0.21570130771650187,1.910250254085844,-991.7626274815173
87,0.21573027024510355,1.9102476108500575,-910.4595167659764
88,0.21573928620275343,1.9102467879389358,-887.187574660343
89,0.2157483021604033,1.9102459649903547,-864.796957963641
90,0.21578460249648404,1.9102426512295116,-782.7389560375785
91,0.2158170383675098,1.9102396897316432,-718.9265361163125
92,0.21584947423853554,1.9102367277489094,-662.6336674788005
93,0.2159554530969574,1.910227046578503,-518.6115726498705
94,0.2161239148485659,1.9102116469396346,-370.6905164822651
95,0.21632431106724653,1.9101933110283924,-264.76330669260943
96,0.2165570311692991,1.9101719942985516,-190.34361194094456
97,0.2168154767554319,1.9101482918888395,-139.2853434144538
98,0.21708515733576092,1.910123526249025,-104.94214004074688
99,0.21734529352891227,1.9100996053009214,-82.45134020472851
100,0.21762752982995692,1.910073616797521,-65.06575787217436
101,0.2179071385804098,1.9100478339734928,-53.64838485036979
102,0.21820373620270328,1.910020445133708,-44.79738445785353
103,0.21858519907386817,1.9099851597963453,-36.47699020731497
104,0.21923055423479115,1.9099253112608714,-27.095135154945435
105,0.21969700668526512,1.9098819337759063,-21.829626257202708
106,0.2201528647369056,1.9098394442416065,-17.810840063330623
107,0.22058595730754507,1.9097989875172914,-14.825023666982341
108,0.22109137733015227,1.909751664584241,-12.355214417585385
109,0.2217105663333644,1.909693528020619,-10.06798405365824
110,0.22251063119879805,1.909618145496974,-7.814682243939179
111,0.2228972198872821,1.9095816144869688,-7.104527064236598
112,0.22310863728597238,1.9095616070849684,-6.737798581413743
113,0.22332005468466268,1.9095415789285528,-6.376754952092266
114,0.22354595812938632,1.909520155527475,-6.140684275927547
115,0.2238166763443411,1.9094944509197795,-5.8932756733368885
116,0.2241675830035233,1.9094610817636293,-5.590508363284308
117,0.2247952339973173,1.9094012530871007,-4.931077501201195
118,0.2254228849911113,1.909341241169838,-4.2607156397714645
119,0.2255714934316562,1.9093270053525155,-4.254186421871308
120,0.2257201018722011,1.9093127592545336,-4.189212710782691
121,0.22587569332695426,1.909297832723299,-4.084750468692112
122,0.22605815587761818,1.9092803139751346,-4.060385191142332
123,0.22629570628120724,1.909257482850263,-4.045450299323023
124,0.22686265528470298,1.9092028867554733,-4.009421794712085
125,0.22873683151609916,1.9090213404081242,-3.895909439064661
126,0.23057737056914596,1.9088414558168911,-3.764397889473761
127,0.23335993079343717,1.9085664922929997,-3.560046978176945
128,0.2369376907659331,1.908207608781954,-3.2767995953979603
129,0.24051545073842903,1.9078426958818124,-2.9849311263390454
130,0.24769804369296425,1.9070918157977137,-2.3856721495613336
131,0.2548806366474995,1.906316362310511,-1.8241831180790078
132,0.26331623285579603,1.905374005521171,-1.2400006736085012
133,0.2713229074986214,1.9044477057128253,-0.7048162896585646
134,0.27771541215176393,1.9036857014441,-0.2768462079860226
135,0.28410791680490644,1.902903623972434,-0.0
136,0.2927302525246015,1.9018167170858757,-0.0
137,0.299862561745586,1.900889638758718,-0.0
138,0.3056792627853691,1.9001146667394926,-0.0
139,0.3114959638251522,1.8993226128790517,-0.0
140,0.3194648990373946,1.8982095894120352,-0.0
141,0.32692203268594816,1.897138641898485,-0.0
142,0.3353611220194173,1.8958921335405108,-0.0
143,0.34380021135288646,1.8946086956904782,-0.0
144,0.3523011736998109,1.8932782483142738,-0.0
145,0.35891792842971126,1.8922164085019506,-0.0
146,0.36553468315961163,1.8911314357586222,-0.0
147,0.371729253411197,1.8900946250993467,-0.0
148,0.38068230152318294,1.8885599383388307,-0.0
149,0.387735360933566,1.8873206765604131,-0.0
150,0.3933622812085822,1.8863127850141006,-0.0
151,0.3980704633316933,1.8854563125515937,-0.0
152,0.40229781286493804,1.8846770780988271,-0.0
153,0.40652516239818276,1.883888141512841,-0.0
154,0.41090557870434713,1.8830603819941716,-0.0
155,0.4152859950105115,1.882222163004331,-0.0
156,0.41533740639016176,1.8822122629491853,-0.0
157,0.415388817769812,1.8822023614505374,-0.0
158,0.41544865958212585,1.8821908344871676,-0.0
159,0.4155298824958253,1.8821751858837616,-0.0
160,0.41564364019600597,1.882153262992267,-0.0
161,0.4158458355641169,1.8821142793292231,-0.0
162,0.41613021722424043,1.8820594121946224,-0.0
163,0.4163216409086674,1.8820224550149354,-0.0
164,0.4165130645930944,1.8819854778152814,-0.0
165,0.41667375079298,1.8819544227001135,-0.0
166,0.41683443699286565,1.881923353476136,-0.0
167,0.4171495364015198,1.8818623869687126,-0.0
168,0.41808232643698306,1.8816815894614134,-0.0
169,0.42102842783665184,1.881107438283223,-0.0
170,0.42670760938202185,1.8799872406394125,-0.0
171,0.4333305765607761,1.8786585411225645,-0.0
172,0.44059517130069303,1.8771733975824525,-0.0
173,0.449103119906399,1.8753971286014466,-0.0
174,0.4590906360956159,1.8732610304344677,-0.0
175,0.4734308446633379,1.870097705350064,-0.0
176,0.4902684674211892,1.8662385980915124,-0.0
177,0.5082195748471198,1.8619523398187665,-0.0
178,0.526705044359725,1.8573540321147537,-0.0
179,0.5473344898229818,1.852003466790848,-0.0
180,0.569188190770818,1.8460870222520753,-0.0
181,0.591623470677362,1.839752647067184,-0.0
182,0.6132666393290687,1.8333982841466983,-0.0
183,0.6415080325572079,1.8247595470517208,-0.0
184,0.663326569981756,1.817827610886132,-0.0
185,0.6755872680961035,1.8138377983737053,-0.0
186,0.6872373936183706,1.809985886886414,-0.0
187,0.6873725565465502,1.809940856897694,-0.0
188,0.6874948804732128,1.8099000975978252,-0.0
189,0.6876482622274152,1.8098489806346365,-0.0
190,0.6878239906752035,1.809790404037819,-0.0
191,0.6880121005794898,1.809727685785154,-0.0
192,0.6882038730689323,1.8096637309826389,-0.0
193,0.6883930653457754,1.8096006214376905,-0.0
194,0.6885757538184335,1.8095396670455206,-0.0
195,0.6887499637610589,1.809481528411336,-0.0
196,0.688915017350566,1.809426433691225,-0.0
197,0.6890710375481919,1.8093743437458485,-0.0
198,0.689218596208753,1.8093250693845269,-0.0
199,0.6893584915469247,1.8092783455693715,-0.0
200,0.6894916232313737,1.809233873100145,-0.0
201,0.6896188601684171,1.809191362789323,-0.0
202,0.6897410224759235,1.8091505415181914,-0.0
203,0.6898588504687378,1.8091111626351886,-0.0
204,0.6899730467262326,1.809072991929059,-0.0
205,0.6900842050768697,1.80903583139249,-0.0
206,0.690192842632687,1.8089995085453745,-0.0
207,0.6902994742880862,1.808963851545326,-0.0
208,0.6904045302727372,1.8089287167684753,-0.0
209,0.6905084237188404,1.8088939662302754,-0.0
210,0.690611505073871,1.808859482842826,-0.0
211,0.6907141320801924,1.8088251470155683,-0.0
212,0.690816642229694,1.808790845872302,-0.0
213,0.6909193305155233,1.8087564807019842,-0.0
214,0.6910224872416876,1.8087219543122626,-0.0
215,0.6911263916908202,1.8086871731499303,-0.0
216,0.6912313131461837,1.8086520469604652,-0.0
217,0.691337571073951,1.8086164686370885,-0.0
218,0.6914454593397781,1.8085803395878282,-0.0
219,0.6915552739832546,1.808543560436584,-0.0
220,0.6916672824557647,1.8085060413254883,-0.0
221,0.6917817988421708,1.8084676767171035,-0.0
222,0.6918990506539076,1.8084283900163487,-0.0
223,0.6920194079625773,1.808388056797588,-0.0
224,0.6921433111532073,1.8083465289814407,-0.0
225,0.6922710511244368,1.8083037084972808,-0.0
226,0.6924029892851917,1.8082594735532411,-0.0
227,0.6925394035123,1.8082137302702292,-0.0
228,0.6926808343780901,1.8081662965705456,-0.0
229,0.692827251395645,1.8081171817962078,-0.0
230,0.692979205796525,1.80806620007731,-0.0
231,0.693136789823478,1.8080133194075776,-0.0
232,0.6933001821071418,1.8079584787201524,-0.0
233,0.6934694944026273,1.8079016393121417,-0.0
234,0.6936445455170083,1.8078428607835106,-0.0
235,0.6938249696815965,1.8077822647434976,-0.0
236,0.6940100549513886,1.807720089178771,-0.0
237,0.694198923592476,1.807656627979078,-0.0
238,0.6943901702995687,1.8075923526203794,-0.0
239,0.6945819653980491,1.807527877690869,-0.0
240,0.6947717660357867,1.8074640581900978,-0.0
241,0.6949569323636502,1.8074017825415403,-0.0
242,0.6951343450033891,1.807342101290064,-0.0
243,0.6953010260179482,1.807286018242999,-0.0
244,0.6953648823765627,1.8072645294862892,-0.0
245,0.6954223969958265,1.8072451733867936,-0.0
246,0.6954850234672139,1.8072240953741978,-0.0
247,0.6955501479964692,1.8072021748739573,-0.0
248,0.6956149656724575,1.8071803559141275,-0.0
249,0.6956767498062537,1.8071595564870826,-0.0
250,0.6957001417192006,1.8071516812633817,-0.0
251,0.695721279152592,1.8071445648477618,-0.0
252,0.695744088381073,1.8071368853753722,-0.0
253,0.6957675014711993,1.8071290023691977,-0.0
254,0.6957904221144844,1.807121284946237,-0.0
255,0.6958011790335615,1.8071176629967183,-0.0
256,0.6958108839045709,1.8071143952399615,-0.0
257,0.695821105196988,1.8071109535552223,-0.0
258,0.6958313697605197,1.807107497256836,-0.0
259,0.6958412259747004,1.8071041784173798,-0.0
260,0.6958455937423419,1.8071027076654216,-0.0
261,0.6958495277730425,1.8071013829583051,-0.0
262,0.6958536687670559,1.807099988553462,-0.0
263,0.6958578358256499,1.8070985853646784,-0.0
264,0.6958618565957694,1.8070972314293314,-0.0
265,0.6958637140234963,1.8070966059655362,-0.0
266,0.6958653896327297,1.8070960417254474,-0.0
267,0.6958671573669734,1.8070954464621738,-0.0
268,0.6958689440194804,1.8070948448270883,-0.0
269,0.6958706795188954,1.8070942604159648,-0.0
270,0.6958723037695493,1.807093713465559,-0.0
271,0.6958729198450609,1.8070935060079143,-0.0
272,0.6958734774795344,1.8070933182296052,-0.0
273,0.6958740797648519,1.807093115415388,-0.0
274,0.6958747033873057,1.807092905415922,-0.0
275,0.6958753248630026,1.8070926961391978,-0.0
276,0.6958759228548055,1.8070924947703269,-0.0
277,0.6958764799395877,1.8070923071764289,-0.0
278,0.6958766950516356,1.8070922347391123,-0.0
279,0.6958768897513039,1.80709216917549,-0.0
280,0.6958771002368466,1.8070920982960776,-0.0
281,0.695877319039494,1.8070920246159239,-0.0
282,0.6958775387013506,1.807091950646418,-0.0
283,0.6958777524748453,1.8070918786597554,-0.0
284,0.6958779548353926,1.8070918105163019,-0.0
285,0.6958781417818921,1.8070917475634025,-0.0
286,0.6958782159527878,1.8070917225868788,-0.0
287,0.6958782830566906,1.807091699990113,-0.0
288,0.6958783556732652,1.8070916755369917,-0.0
289,0.6958784316043326,1.8070916499677359,-0.0
290,0.6958785087013676,1.807091624005846,-0.0
291,0.6958785850513002,1.8070915982955356,-0.0
292,0.695878659101863,1.8070915733595196,-0.0
293,0.6958787297235318,1.8070915495781579,-0.0
294,0.6958787962140031,1.8070915271879466,-0.0
295,0.6958788582580965,1.807091506295021,-0.0
296,0.695878915859019,1.8070914868983015,-0.0
297,0.6958789692580026,1.8070914689165551,-0.0
298,0.6958790188559586,1.807091452214778,-0.0
299,0.6958790651463477,1.807091436626801,-0.0
300,0.6958791086638111,1.807091421972587,-0.0
301,0.6958791499489514,1.8070914080700924,-0.0
302,0.6958791895273089,1.8070913947423446,-0.0
303,0.6958792278995197,1.8070913818207581,-0.0
304,0.6958792655395161,1.8070913691457393,-0.0
305,0.6958793028980201,1.8070913565655107,-0.0
306,0.6958793404093313,1.8070913439338245,-0.0
307,0.6958793785001746,1.8070913311069843,-0.0
308,0.6958794175996948,1.8070913179404782,-0.0
309,0.6958794581503388,1.807091304285315,-0.0
310,0.6958795006196143,1.8070912899840643,-0.0
311,0.6958795455128669,1.8070912748665546,-0.0
312,0.6958795933874301,1.8070912587451071,-0.0
313,0.6958796448686685,1.807091241409134,-0.0
314,0.6958797006684472,1.8070912226189193,-0.0
315,0.6958797616068412,1.8070912020983076,-0.0
316,0.6958798286379623,1.8070911795260076,-0.0
317,0.6958799028810441,1.807091154525124,-0.0
318,0.6958799856581823,1.8070911266504486,-0.0
319,0.6958800785404738,1.8070910953729236,-0.0
320,0.6958801834047484,1.8070910600605372,-0.0
321,0.6958803025036641,1.8070910199547194,-0.0
322,0.6958804385526404,1.807090974141067,-0.0
323,0.6958805948381104,1.807090921512891,-0.0
324,0.6958807753527338,1.807090860725683,-0.0
325,0.6958809849648422,1.8070907901400561,-0.0
326,0.695881229631391,1.8070907077500327,-0.0
327,0.6958815166663753,1.8070906110926557,-0.0
328,0.695881855080091,1.8070904971337431,-0.0
329,0.6958822560091074,1.807090362123094,-0.0
330,0.6958827332626248,1.8070902014105006,-0.0
331,0.6958833040185515,1.8070900092113424,-0.0
332,0.6958839897125051,1.8070897783072095,-0.0
333,0.6958848171760305,1.8070894996625977,-0.0
334,0.6958858200973453,1.8070891619329863,-0.0
335,0.6958870409000176,1.8070887508321658,-0.0
336,0.6958885331644961,1.8070882483167405,-0.0
337,0.6958903647551169,1.8070876315330315,-0.0
338,0.6958926218648811,1.8070868714548713,-0.0
339,0.6958954142553836,1.8070859311188474,-0.0
340,0.695898882051275,1.8070847633359242,-0.0
341,0.6959032045561564,1.807083307722126,-0.0
342,0.695908611690062,1.807081486846039,-0.0
343,0.6959153988151425,1.8070792012347392,-0.0
344,0.6959239459149927,1.8070763229126485,-0.0
345,0.6959347423185707,1.807072687071629,-0.0
346,0.6959484183976932,1.8070680813900513,-0.0
347,0.6959657858655942,1.807062232451059,-0.0
348,0.6959878883873155,1.8070547886811152,-0.0
349,0.6960160640116262,1.8070452992959147,-0.0
350,0.696052020176972,1.807033188993096,-0.0
351,0.6960979203229508,1.8070177287068458,-0.0
352,0.6961564778413248,1.806998003844567,-0.0
353,0.6962310475916679,1.8069728832743326,-0.0
354,0.6963256970137567,1.8069409950844844,-0.0
355,0.6964452285010048,1.8069007186256654,-0.0
356,0.6965951146398603,1.8068502057417135,-0.0
357,0.6967813040466682,1.8067874454300838,-0.0
358,0.6970098667186163,1.806710382465612,-0.0
359,0.697286482476307,1.8066170889349413,-0.0
360,0.6976158331861809,1.8065059684778828,-0.0
361,0.6980010188252093,1.8063759530571604,-0.0
362,0.6984431408442932,1.8062266441089427,-0.0
363,0.6989411511601584,1.8060583649399942,-0.0
364,0.6994919629197045,1.805872125477014,-0.0
365,0.7000907260651346,1.8056695317706895,-0.0
366,0.7007311605035338,1.805452676120545,-0.0
367,0.7014059153054896,1.8052240181828794,-0.0
368,0.702106999630756,1.8049862412664792,-0.0
369,0.7028263041880543,1.8047420770777962,-0.0
370,0.7035559614381822,1.804494184156111,-0.0
371,0.7042885074835523,1.8042450928651377,-0.0
372,0.7050178556377049,1.803996873479287,-0.0
373,0.7057401169845883,1.8037508544975684,-0.0
374,0.7064531817316928,1.8035077621020366,-0.0
375,0.7071559261214478,1.8032679882060338,-0.0
376,0.7078477207541038,1.8030317569570973,-0.0
377,0.7085282324257132,1.8027991917602022,-0.0
378,0.7091973557435042,1.8025703382503608,-0.0
379,0.7100123891958011,1.8022913395863491,-0.0
380,0.7113203541145109,1.8018430511195473,-0.0
381,0.7134781836203407,1.8011020027760252,-0.0
382,0.7169879353339119,1.7998927652152477,-0.0
383,0.7226256175128873,1.7979403615164895,-0.0
384,0.7319880165202444,1.794671280511921,-0.0
385,0.7538443331004032,1.7869147518892645,-0.0
