,time,theta,torque
0,0.0,1.9198621771937625,-135.0844310926892
1,0.013385659083907268,1.9198260855523681,-189.1564972615385
2,0.02925517048408669,1.919689711941537,-264.7486483278469
3,0.04401320109239035,1.9194715773105346,-346.1052693081795
4,0.06196113766310605,1.9190872195180486,-458.7996489468691
5,0.07505889211575124,1.9187237955141214,-550.9011308221898
6,0.08815664656839645,1.9182899308093895,-650.6462231487727
7,0.0976361437536178,1.917931703903827,-727.1943686493223
8,0.10468352091591535,1.9176411817051293,-786.2598261831643
9,0.11173089807821289,1.9173299127659207,-846.9278163562893
10,0.1171461432611726,1.9170765735368485,-894.710212616164
11,0.12100367357849798,1.9168885750074678,-929.9487286475194
12,0.12422870986671869,1.916726576161894,-960.197564572391
13,0.1274537461549394,1.916560171639215,-990.844619144354
14,0.13058273570962464,1.9163945017508677,-1021.1768657073409
15,0.13371172526430988,1.9162246642161844,-1051.8710995764
16,0.1367413813595871,1.9160562372870154,-1082.2022760008547
17,0.13977103745486433,1.915883883759902,-1112.8866134903126
18,0.14337799224334538,1.915673554605794,-1149.9746492211552
19,0.14645132885992254,1.9154899268460566,-1182.189540715999
20,0.1495246654764997,1.915302225525868,-1214.7264382580654
21,0.1543194318340301,1.9150012287040241,-1265.9071471770571
22,0.1604995054095347,1.9145985354644888,-1333.0735849205657
23,0.16691121988088137,1.9141631209347592,-1404.9191095401848
24,0.17332293435222804,1.9137096501387518,-1478.0245478124868
25,0.17937611292765474,1.9132648692349257,-1547.5690444100735
26,0.18542929150308143,1.912803804662304,-1617.350943854627
27,0.1918518729326922,1.9122966916976614,-1691.3044276538928
28,0.19670945327679612,1.9119008295371442,-1747.095823561173
29,0.2000004885288202,1.911626573016119,-1785.7132093539956
30,0.20329152378084425,1.911347404499892,-1824.442797923943
31,0.20761311503833266,1.9109733296481426,-1874.9210296855308
32,0.21096596064488327,1.9106772310717082,-1914.828913159474
33,0.21431880625143387,1.9103759773326074,-1955.3449410612027
34,0.21927681848102493,1.909921013482445,-2014.6942638184337
35,0.22516558431231304,1.9093658648055567,-2083.951698487676
36,0.2312229802981833,1.908777981986332,-2152.9281693581124
37,0.2323741824388591,1.908664315834272,-2165.673340630772
38,0.23237519493148018,1.9086642155905222,-2156.7452194468888
39,0.2323761185027797,1.9086641241501772,-2147.834836818868
40,0.23237939642167818,1.9086637996088918,-2116.63365515125
41,0.23238836264509227,1.908662911852326,-2034.5989574378427
42,0.23240801878480385,1.9086609655424094,-1870.315556890989
43,0.23244329799977276,1.9086574718138887,-1620.4326097970866
44,0.23249594920337072,1.9086522566383264,-1328.8387653318803
45,0.23256337868701515,1.9086455757551901,-1053.651953498766
46,0.2326414221591425,1.9086378405810507,-824.9802317275156
47,0.2327265735250494,1.908629397659305,-645.8335530152877
48,0.23281621426782842,1.9086205059331105,-508.4316331508502
49,0.23290840831189352,1.9086113570061674,-403.28315261164477
50,0.23300180161197892,1.9086020850053145,-322.18875684276884
51,0.23309544038098934,1.908592784526648,-258.887745630646
52,0.2331887298868046,1.908583514647144,-208.773532727682
53,0.23328131015091946,1.9085743112057265,-168.5373301869476
54,0.23337298649324442,1.9085651936602792,-135.8094331603113
55,0.23346368636085485,1.9085561693473918,-108.88411318481556
56,0.23355340931000548,1.9085472384355762,-86.52955570900282
57,0.2336422114930577,1.9085383954550421,-67.84631023712133
58,0.2337301480101644,1.9085296350302599,-52.17956547098722
59,0.23381733531286714,1.9085209456597856,-39.03935927991491
60,0.23390389830297587,1.90851231497955,-28.066143809512216
61,0.23398996155338223,1.9085037306373769,-18.998631023552733
62,0.23400615514752574,1.9085021150254502,-18.848570113475393
63,0.23402082182070233,1.9085006516459886,-18.839466405837058
64,0.23409355361740025,1.908493393278148,-18.792615067239176
65,0.23428895133715988,1.9084738809956354,-18.659846368090793
66,0.2349861481508767,1.9084041132112783,-18.19190024559748
67,0.23683452721022025,1.908218041431345,-16.98140189375351
68,0.23922244533426945,1.907975272925015,-15.460314441603682
69,0.2438779783334502,1.9074942193454658,-12.680566503800938
70,0.2522934092633306,1.9065985300096275,-8.262624958755469
71,0.2655582967010745,1.9051177582501464,-2.8541380738961117
72,0.28255790099936134,1.9030951079129252,-0.0
73,0.3022778160813886,1.9005699169097447,-0.0
74,0.3305683945744926,1.8966045645935097,-0.0
75,0.3609506135295386,1.8918855689174243,-0.0
76,0.3995329885828524,1.885187819262743,-0.0
77,0.439034905975271,1.8774948199773172,-0.0
78,0.4964253738688728,1.8647884473837604,-0.0
79,0.5694703953762543,1.8460089703880658,-0.0
80,0.6851096058533023,1.8106937312770122,-0.0
81,0.70031255815356,1.805594423112762,-0.0
82,0.7155155104538177,1.8004006426009755,-0.0
83,0.7314040277102097,1.7948761411510203,-0.0
84,0.7505158687083786,1.7881069090442523,-0.0
85,0.7810391510221111,1.7770353613489054,-0.0
86,0.8140029661282464,1.7647542636270366,-0.0
87,0.8464689947929509,1.7523704969029348,-0.0
88,0.8940297546419854,1.7337937543338486,-0.0
89,0.9404659388160315,1.7152477634524181,-0.0
90,0.9833200068728081,1.6978425574923233,-0.0
91,1.0351463337277749,1.6764810957117127,-0.0
92,1.0840525433264379,1.656037681640375,-0.0
93,1.1365483978519093,1.6337814956717915,-0.0
94,1.186188882993063,1.6124089089456866,-0.0
95,1.2397292618148388,1.5889557734730362,-0.0
96,1.2738232413019466,1.5737875723824155,-0.0
97,1.3079172207890544,1.5584379328219644,-0.0
98,1.3406275729093766,1.5435556959874415,-0.0
99,1.3715463334611464,1.5293782131169773,-0.0
100,1.4140146744823228,1.509822172820332,-0.0
101,1.4547843572806223,1.491131923116245,-0.0
102,1.5050491091582785,1.468618001509728,-0.0
103,1.5467560344459292,1.4508729860301315,-0.0
104,1.5854597762084732,1.435673173993132,-0.0
105,1.6324697075275352,1.4196160000363482,-0.0
106,1.6794796388465971,1.4071253669983197,-0.0
107,1.7181290627919945,1.4001757853388104,-0.0
108,1.75441235228416,1.396755277549917,-0.0
109,1.783267686420078,1.3963085171259324,-0.0
110,1.8120970338749902,1.3978947009568339,-0.0
111,1.8438303204184014,1.4019243821921785,-0.0
112,1.878389570282021,1.4088518920038011,-0.0
113,1.9096064391736212,1.4171409653816178,-0.0
114,1.9367387746152984,1.4256957352108246,-0.0
115,1.9638711100569757,1.43530658201747,-0.0
116,1.9884239532170522,1.4447545887918138,-0.0
117,2.008331938424288,1.4528418911396375,-0.0
118,2.0282399236315243,1.461238265882288,-0.0
119,2.0431960251911936,1.4677117875546393,-0.0
120,2.058152126750863,1.4743005047100346,-0.0
121,2.0750174420178693,1.4818409780236121,-0.0
122,2.087075261540259,1.4872887138571909,-0.0
123,2.0991330810626483,1.4927729963775764,-0.0
124,2.1107438263705576,1.4980805065892495,-0.0
125,2.122354571678467,1.5034070996681812,-0.0
126,2.1370102218746947,1.5101482621597242,-0.0
127,2.1548383020333506,1.5183605955741697,-0.0
128,2.169927499476822,1.525309933739677,-0.0
129,2.1850166969202935,1.532249061029457,-0.0
130,2.205208299144587,1.5415068136643164,-0.0
131,2.2196789117229,1.5481153610317386,-0.0
132,2.2341495243012126,1.5546978870017123,-0.0
133,2.2592913903766827,1.566065042142755,-0.0
134,2.2790533638365513,1.5749328889612717,-0.0
135,2.2934436610953974,1.5813517035446587,-0.0
136,2.3073669138999646,1.5875309059964902,-0.0
137,2.322513093662633,1.5942180127279044,-0.0
138,2.3366558170352625,1.6004297163503476,-0.0
139,2.349840743325599,1.6061931214885694,-0.0
140,2.3681134988837167,1.6141376504314717,-0.0
141,2.385917797159711,1.621832248890144,-0.0
142,2.4007155842648915,1.6281941239376554,-0.0
143,2.415513371370072,1.6345268550281271,-0.0
144,2.431330476337567,1.6412647489767112,-0.0
145,2.446319922402791,1.6476214730751941,-0.0
146,2.4674692266745857,1.6565447487626348,-0.0
147,2.4881528411723783,1.665221247277256,-0.0
148,2.5040905065932137,1.6718735289134798,-0.0
149,2.520028172014049,1.6784968356792784,-0.0
150,2.5345589983545356,1.684509984743412,-0.0
151,2.546311471485003,1.6893552569587182,-0.0
152,2.557565351395405,1.6939793886976315,-0.0
153,2.5753177100887505,1.7012416003786663,-0.0
154,2.593019932397104,1.7084422128571832,-0.0
155,2.6130526226796116,1.7165377663526786,-0.0
156,2.6380778320202825,1.7265644801853346,-0.0
157,2.667332553599217,1.7381493582411474,-0.0
158,2.6942656038614206,1.7486667426750868,-0.0
159,2.719024729054012,1.7581926285451808,-0.0
160,2.7417331190632233,1.7667947245285742,-0.0
161,2.763700102111902,1.7749799848851715,-0.0
162,2.7887376332003435,1.7841297262084104,-0.0
163,2.8142848607853708,1.7932491892312876,-0.0
164,2.844785841376638,1.8038221708679936,-0.0
165,2.878887943628139,1.8151985018333068,-0.0
166,2.91299004587964,1.8260627525609165,-0.0
167,2.9552814937710097,1.8387666867694072,-0.0
168,3.001196678528292,1.8515296071511769,-0.0
169,3.0451686676371574,1.8626983026118797,-0.0
170,3.0851923427240435,1.8719438863541602,-0.0
171,3.1365320403670487,1.8825106353495253,-0.0
172,3.202080387652673,1.8939191463083334,-0.0
173,3.2632898047780183,1.9025397943400437,-0.0
174,3.328694374901026,1.9097018181765524,-0.0
175,3.4207031153562664,1.9164462475887438,-0.0
176,3.5098718312177954,1.9195323819226688,-0.0
177,3.579976833712325,1.9196848761454464,-0.0
178,3.6484061009126614,1.9179136094138463,-0.0
179,3.7275044101926884,1.9134275046308533,-0.0
180,3.8092465137007565,1.905868249933984,-0.0
181,3.904335986492781,1.8930046814049197,-0.0
182,4.0109204078876255,1.872932532806712,-0.0
183,4.1443905477829155,1.8390449802049966,-0.0
184,4.24674750868258,1.8069054316881972,-0.0
185,4.317859336322027,1.7819685403809,-0.0
186,4.388166279024782,1.7556837180893219,-0.0
187,4.508231782563287,1.708191229913912,-0.0
188,4.629428202607002,1.6581153903839558,-0.0
189,4.759698237484149,1.602303009263858,-0.0
190,4.8813162421620016,1.5479502632864819,-0.0
191,4.982347516054281,1.5015385720795509,-0.0
192,5.0,1.493457322405236,-0.0
