,time,theta,torque
0,0.0,1.9198621771937625,-135.0844310926892
1,0.013385659083907268,1.9198260855523681,-189.1498514180488
2,0.02595223150476432,1.9197264708407693,-248.14837853742858
3,0.038518803925621375,1.9195630893946245,-314.7067954474613
4,0.048250458032853556,1.9193926438099864,-371.6614523150673
5,0.057694215581852185,1.9191904746418211,-431.32121769385157
6,0.06744543206768622,1.9189435902738856,-497.3669733590361
7,0.0749667806901704,1.918726596746717,-551.4389886373931
8,0.08133491573196416,1.9185247200189595,-599.2212711843621
9,0.08770305077375792,1.9183061389365683,-648.7349556035567
10,0.09428485379952431,1.9180626067875302,-702.1236605929116
11,0.1008666568252907,1.9178010979649558,-757.4780257187854
12,0.10751570379763763,1.9175185886519794,-815.4705098543998
13,0.11416475076998456,1.9172175764923565,-875.3502627965753
14,0.12024775745920485,1.9169259097228486,-932.0569719927263
15,0.12633076414842515,1.9166186155837681,-990.4736333449858
16,0.13408373231043622,1.9162041944639785,-1067.1529687173484
17,0.1393367883012893,1.9159088291181898,-1119.7645942677284
18,0.14299372858043596,1.9156962278754286,-1157.2573516520297
19,0.14665066885958264,1.9154778759862792,-1195.1837378376597
20,0.14945861691823392,1.915306302289457,-1224.686813318584
21,0.1522665649768852,1.9151313193668495,-1254.4236447300611
22,0.15546482992281133,1.9149278494040942,-1288.7334013520622
23,0.1590931935370438,1.914691633009787,-1327.904070034885
24,0.16176453173787902,1.9145140532495448,-1357.0524875265965
25,0.16443586993871426,1.9143333540101468,-1386.39564343066
26,0.16761805022486684,1.9141140175993487,-1421.8175020472077
27,0.1712195349092191,1.9138604105439023,-1462.1282202175623
28,0.17382476599550095,1.9136733928442333,-1491.5863152712575
29,0.1764299970817828,1.9134833747634563,-1521.2120974420393
30,0.17952016018252193,1.9132540868150194,-1556.7829313855464
31,0.18301357079416822,1.9129897663151112,-1597.1286991272887
32,0.1853227904781633,1.9128120580117876,-1624.3519475789362
33,0.18763201016215839,1.912631966231907,-1652.099177296101
34,0.19107664038104377,1.9123588847535544,-1694.305790027219
35,0.19452127059992916,1.9120804697041625,-1736.93142415549
36,0.19730253648579107,1.911851767402897,-1771.8500842031676
37,0.200083802371653,1.9116195664254316,-1806.8660194499387
38,0.20306364992650677,1.9113668929643544,-1844.871189092
39,0.20604349748136055,1.911110180074258,-1882.8500490817175
40,0.20884127547245634,1.9108654647927705,-1918.7032644573794
41,0.21163905346355213,1.9106171677117074,-1954.4355041302188
42,0.21430171865375253,1.9103775257557918,-1988.7699924637477
43,0.21696438384395292,1.9101346214615982,-2023.1040029094247
44,0.2204128977165088,1.9098151640941567,-2067.378414497436
45,0.2240863977492901,1.9094688071358656,-2113.9438670870154
46,0.2277992994787306,1.909112361492004,-2160.7579157686305
47,0.23078554408654375,1.9088210103510712,-2199.4752376106517
48,0.2337717886943569,1.9085254854296445,-2238.0782383389683
49,0.23621491017453736,1.9082805958974147,-2269.905966936311
50,0.2386580316547178,1.9080328969567744,-2301.8058817715428
51,0.2420444625088366,1.9076849001642815,-2345.8223307617577
52,0.24559186795267984,1.9073145371371056,-2391.1062330592704
53,0.24924046791852175,1.9069273694195372,-2437.213652391984
54,0.2521515039392959,1.9066139137054625,-2474.863491219705
55,0.2550625399600701,1.9062964028965936,-2512.2474211501867
56,0.2573560294519228,1.9060433847852785,-2541.8566797555472
57,0.2596495189437755,1.9057878360020695,-2571.3969475371264
58,0.2626661563659413,1.905447848046275,-2610.2108854920552
59,0.2650800114978502,1.905172626317202,-2641.5635608148086
60,0.2674938666297591,1.9048945789556633,-2672.930002955299
61,0.2702089549083186,1.9045784478563919,-2708.252211277263
62,0.27275728314900155,1.9042784642713646,-2741.8413678197976
63,0.2753056113896845,1.903975306687316,-2775.6335642261947
64,0.2776825771411553,1.903689666696428,-2807.71116918065
65,0.2800595428926261,1.9034012514257177,-2840.1259186455045
66,0.28244990525475516,1.9031084051408227,-2873.4884667149126
67,0.28484026761688425,1.9028127387341194,-2907.3387180301934
68,0.28728122114131893,1.9025078973698242,-2942.757902818779
69,0.2897221746657536,1.9022001010654381,-2978.747695612567
70,0.29196233495832563,1.9019150176972903,-3012.750458513671
71,0.29420249525089764,1.901627434024463,-3047.377312485127
72,0.29658760928738415,1.9013184873328104,-3085.3385690215587
73,0.29897272332387065,1.901006693469451,-3124.046248438498
74,0.3019672136711243,1.9006111975841113,-3173.613821538572
75,0.30555543102323307,1.9001313427979925,-3234.679007800536
76,0.30914364837534186,1.8996449883743656,-3297.322608489765
77,0.3145505878732672,1.8988997958645413,-3395.1263979572855
78,0.31898091596128736,1.898278111386262,-3477.9078893743795
79,0.32341124404930754,1.8976463943153759,-3563.020966926142
80,0.32704862059379924,1.897120215617917,-3635.1843269917686
81,0.33068599713829094,1.896587225335796,-3708.9377459697134
82,0.3351544274816938,1.8959231038197488,-3802.0193447445818
83,0.3396228578250966,1.8952486303565512,-3897.503019464616
84,0.3435359615050473,1.8946494462113947,-3982.8314941871545
85,0.34698291902952993,1.8941150177951496,-4059.4993468792454
86,0.3504298765540126,1.893574368981899,-4137.545879220761
87,0.35448305160908494,1.8929306555285426,-4231.083251994578
88,0.3588629546152355,1.892225325761841,-4334.169202725475
89,0.36219416920841285,1.8916820901395863,-4414.066384432635
90,0.3655253838015902,1.8911329769557956,-4495.244807154708
91,0.36851021984388416,1.8906359561974984,-4568.979601399211
92,0.3714950558861781,1.8901341953779978,-4643.557472449017
93,0.3755848159807152,1.889438978615132,-4747.9711465789505
94,0.38177453243285353,1.8883697762516076,-4910.281005594746
95,0.3878429317777088,1.8873015686635408,-5073.937889139589
96,0.39110013589029907,1.886720033118241,-5163.019939157946
97,0.39435734000288936,1.886132771770778,-5253.824333541559
98,0.3995183396582876,1.8851905142960106,-5400.4816293305175
99,0.402307910216807,1.8846752052984728,-5480.756281375531
100,0.4050974807753264,1.884155671462762,-5561.7195429019075
101,0.40828630278315636,1.8835565979569673,-5655.281658245986
102,0.4108565736953905,1.883069700268088,-5731.655078441914
103,0.4134268446076247,1.8825792015186273,-5809.32242257941
104,0.4164568082194056,1.881996346973317,-5902.94842719157
105,0.41865800487702604,1.88156977160235,-5971.833031482964
106,0.42085920153464645,1.8811405465876612,-6041.375184568604
107,0.42480439641866585,1.8803646113895076,-6168.08436801318
108,0.4288456026308578,1.879560948337331,-6299.44000807815
109,0.43213484590816936,1.8789002103661545,-6407.265139228596
110,0.4354240891854809,1.8782335290991796,-6516.239946518913
111,0.43780045367039827,1.8777481739215784,-6595.4314676700915
112,0.4401768181553156,1.8772597119399677,-6675.695096222787
113,0.4423187346111245,1.8768167771885664,-6749.664374639222
114,0.44446065106693333,1.876371315846638,-6824.607162986848
115,0.44751734315684394,1.8757312279162681,-6933.0072172002265
116,0.4499844187958246,1.875210852888263,-7021.1682604730495
117,0.4520339176277596,1.874776004125345,-7094.843965673242
118,0.4540834164596945,1.874338838310965,-7168.858172572113
119,0.45644251750397224,1.8738327639221526,-7254.508047927878
120,0.4583146463666354,1.8734289689756596,-7322.897996156991
121,0.4601867752292985,1.8730232394245054,-7391.536046921316
122,0.4616168004917857,1.872712019568672,-7444.137640283797
123,0.4626013676569162,1.8724970895894604,-7481.692294726272
124,0.46358593482204663,1.8722816244048197,-7519.872259849276
125,0.4650213050385513,1.8719665454072356,-7575.378971434598
126,0.4667426065338112,1.8715872013689367,-7641.717817632649
127,0.4685581354548464,1.8711853185078189,-7712.047885880132
128,0.4707105132637942,1.8707065134223042,-7796.664589793358
129,0.47236022214012574,1.870337797462718,-7861.817655723403
130,0.4740099310164573,1.8699675789405148,-7927.137063955959
131,0.47590258725457935,1.8695409889172252,-8002.4653228412835
132,0.4784460286807162,1.86896460304094,-8104.795414871601
133,0.4810393575573275,1.8683732361387,-8209.324149638527
134,0.4833786888563977,1.867836606236732,-8305.720288108754
135,0.48571802015546783,1.8672969581664967,-8402.923490643543
136,0.48803064648234923,1.866760504926857,-8499.489155487146
137,0.4900072352639964,1.86629966522638,-8582.495664746773
138,0.49162966310404815,1.8659197894437272,-8650.769336598747
139,0.4932520909440999,1.8655384641215857,-8719.12789966858
140,0.49509054385428997,1.8651046144060675,-8796.95737233257
141,0.4969649714209407,1.864660360528373,-8877.032237164069
142,0.49883939898759144,1.8642141744213658,-8957.864180169998
143,0.500645853654937,1.8637823410529506,-9036.95323296661
144,0.5020933823356772,1.863435015173275,-9101.395980980169
145,0.503335243131607,1.8631361210968482,-9157.940742241282
146,0.5045771039275369,1.8628363805326058,-9214.745343350982
147,0.506028736741818,1.8624849359825277,-9281.400906182265
148,0.5074803695560992,1.862132335911897,-9348.344878664548
149,0.5101009057158616,1.861492886639356,-9470.13249612636
150,0.5127560186064242,1.8608411656381796,-9594.042010822317
151,0.5157065929987453,1.8601123984208658,-9732.631215040174
152,0.5176021321654534,1.8596417071348457,-9822.538473759305
153,0.5194976713321614,1.8591690551845874,-9913.256804999823
154,0.5199010390748449,1.8590682227625832,-9932.712359103787
155,0.5201172457562548,1.8590141396832645,-9930.75665295481
156,0.5202449547183683,1.8589821819213634,-9929.696796100861
157,0.5203726636804817,1.8589502152712878,-9929.458458597392
158,0.5205423343586019,1.8589077314957114,-9929.664683762257
159,0.5207513849945028,1.8588553658181115,-9930.560992268049
160,0.5209824833033477,1.8587974496482749,-9932.427290367134
161,0.5211581406360357,1.858753408229213,-9927.838126398441
162,0.5213164325855567,1.8587137063224335,-9923.10925198164
163,0.5217050375743599,1.8586161807037953,-9911.539315731294
164,0.5224251004982439,1.8584352539344768,-9890.203366235011
165,0.523742380743693,1.8581035368541998,-9851.38804010062
166,0.5256373909489879,1.857624680549047,-9795.823430922665
167,0.5293655929329223,1.8566768951401638,-9687.409495956315
168,0.5328682646945566,1.8557795776307215,-9586.474970674886
169,0.5367229770321289,1.8547844029580254,-9476.509258864002
170,0.5417900008043419,1.8534640508461893,-9333.739472978512
171,0.5465923020237738,1.8521999370008293,-9200.37346325994
172,0.5514029051072414,1.8509212516063804,-9068.29305476188
173,0.5563506538402561,1.849593231533575,-8933.973635746333
174,0.561528216823104,1.8481896025529163,-8795.085782157059
175,0.5668210564027073,1.8467400730799504,-8655.217628572103
176,0.573228141158637,1.8449656852732668,-8488.318600521563
177,0.5803624847859492,1.8429646651335727,-8305.546717055155
178,0.5892936613641107,1.8404225339965894,-8081.386878200231
179,0.592901045543158,1.8393841302261134,-7992.249940183112
180,0.5965084297222054,1.8383390906781643,-7903.870698991595
181,0.5979483901639917,1.8379200961747482,-7868.8869868523325
182,0.5981820779445474,1.8378519994601739,-7870.130096374449
183,0.5983932302611042,1.8377904458136154,-7872.31698485703
184,0.5985529668350084,1.8377438655330083,-7872.455470941757
185,0.5987127034089125,1.8376972723421598,-7872.481301864088
186,0.598991043937011,1.8376160529999463,-7872.037435305363
187,0.5993545364550322,1.8375099274538857,-7872.209745996069
188,0.5997603183352256,1.8373913761942693,-7873.041475440157
189,0.6003274842465943,1.8372255364085706,-7874.27734420174
190,0.600928781320166,1.8370495393489072,-7876.587511010442
191,0.6016532014516526,1.8368372625786318,-7879.941159440005
192,0.6023239748459294,1.8366404701933297,-7882.770522724554
193,0.6031193930130843,1.8364068159337976,-7887.2792398788715
194,0.6039758276037861,1.8361548825501879,-7892.7359533012495
195,0.6050493578930679,1.8358385671394992,-7900.018476898884
196,0.6063815009608042,1.8354452485392982,-7909.895469249383
197,0.6075214466914439,1.8351079718237804,-7921.095902404135
198,0.6085591511465162,1.8348003811050615,-7932.837861136006
199,0.6095600629481883,1.8345031876269018,-7945.47756305496
200,0.6105702992343103,1.8342027198347193,-7959.346200366763
201,0.6116833459448788,1.833871086598462,-7975.5411487316715
202,0.6129724500568134,1.8334862288438496,-7995.520759268639
203,0.6140553744650857,1.8331622894048551,-8015.3973056987825
204,0.6145077790395509,1.8330267881415145,-8020.903353800243
205,0.6148156615572945,1.8329345153735626,-8033.063331777731
206,0.6150950460288388,1.8328507430089498,-8044.7870341821135
207,0.615615549925954,1.8326945692080732,-8066.751058516917
208,0.6165151802266702,1.8324243261500868,-8104.605059420923
209,0.6181883961995455,1.8319206439035731,-8175.241899191149
210,0.6205234875482415,1.8312154231987292,-8273.936384130346
211,0.622772248739579,1.8305337548044847,-8369.41958667479
212,0.6264884645413162,1.829401861907548,-8529.39762088063
213,0.6303464293406764,1.8282197250981207,-8696.493262110316
214,0.6330100760374288,1.8273993677463072,-8813.831362387646
215,0.6356737227341811,1.8265756174811396,-8933.0391023879
216,0.638280995985841,1.8257660314292885,-9050.456966535909
217,0.6419406491532225,1.824624244741082,-9217.216283844971
218,0.645600302320604,1.823476162517205,-9386.178259815926
219,0.6491812446324002,1.8223467233936204,-9553.280136080797
220,0.6502779666588129,1.8219996240814602,-9604.369225249535
221,0.6505946981692388,1.8218992788726178,-9619.224005072238
222,0.6509114296796646,1.821798887334364,-9633.90456564266
223,0.651096492794501,1.821740208112356,-9634.889175862021
224,0.6512815559093373,1.8216815130904311,-9636.331270819208
225,0.6514522856800739,1.8216273500568536,-9632.054029694764
226,0.651606827820122,1.821578310868981,-9627.60622648487
227,0.6519912685963893,1.8214562726938537,-9616.575133018374
228,0.6537252670800242,1.8209049814617742,-9567.175996206353
229,0.6561597288089083,1.8201286649493509,-9498.426125069305
230,0.6580973021644355,1.8195088657474783,-9443.218736049608
231,0.6600348755199628,1.8188873605977147,-9388.211393045172
232,0.6617056006869183,1.8183500868347406,-9340.779419937837
233,0.6633763258538738,1.8178115548392682,-9293.524034137672
234,0.6653538185289372,1.8171725217072974,-9237.667896657906
235,0.6673313112040005,1.8165317404913846,-9182.085488644463
236,0.6689333953572911,1.8160113293099258,-9136.782733254251
237,0.6705354795105818,1.8154897803053394,-9091.69644336225
238,0.6732987207936989,1.8145875623933012,-9014.442551876737
239,0.6770912253700387,1.8133438335737644,-8911.2355664755
240,0.6772535147733579,1.8132904718498988,-8916.72848156553
241,0.6772535399560758,1.8132904635687828,-8910.672045740048
242,0.6772535626209893,1.8132904561156244,-8904.426526105879
243,0.677253592370119,1.8132904463328834,-8895.894762642485
244,0.6772536293853311,1.813290434160754,-8884.875448376359
245,0.6772536735255442,1.8132904196456296,-8871.270189261246
246,0.6772537244174015,1.813290402910285,-8855.069118482006
247,0.6772537815490287,1.8132903841230448,-8836.329394320634
248,0.6772538443480787,1.81329036347212,-8815.153263309618
249,0.6772539122418111,1.8132903411458512,-8791.668001671916
250,0.6772539846951812,1.8132903173201826,-8766.010710749311
251,0.677254061232026,1.813290292151696,-8738.31766091647
252,0.6772541414459766,1.8132902657740217,-8708.71683179383
253,0.6772542250022988,1.813290238297234,-8677.323811986218
254,0.6772543116329893,1.8132902098094632,-8644.240577409499
255,0.6772544011330706,1.813290180378114,-8609.554354613914
256,0.6772544933517315,1.8132901500527792,-8573.338948680923
257,0.6772545881873432,1.8132901188668782,-8535.655082440324
258,0.6772546855803468,1.8132900868399962,-8496.55198381525
259,0.6772547855052365,1.81329005398052,-8456.069701045431
260,0.6772548879697281,1.8132900202859121,-8414.238844776113
261,0.6772549930071932,1.8132899857451983,-8371.083255667063
262,0.6772551006744995,1.8132899503396778,-8326.620694466497
263,0.6772552110489536,1.8132899140439283,-8280.86402550134
264,0.6772553242259042,1.813289876826595,-8233.822240714468
265,0.6772554403208959,1.8132898386496816,-8185.499724616277
266,0.6772555594651858,1.8132897994700246,-8135.898335939593
267,0.6772556818028661,1.81328975924024,-8085.018856661077
268,0.677255807499585,1.8132897179058551,-8032.857760923842
269,0.6772559367317434,1.8132896754088614,-7979.412068992511
270,0.6772560696919425,1.8132896316859228,-7924.677537031385
271,0.6772562065911316,1.8132895866676697,-7868.64827685196
272,0.6772563476606978,1.8132895402780114,-7811.316513916873
273,0.6772564931445352,1.8132894924367444,-7752.67640767123
274,0.677256643311146,1.8132894430555728,-7692.719824897546
275,0.6772567984474329,1.81328939204015,-7631.439588240188
276,0.6772569588708304,1.813289339286089,-7568.825553075573
277,0.6772571249225697,1.813289284681177,-7504.868256941168
278,0.677257296964699,1.8132892281063562,-7439.560955881118
279,0.677257475394338,1.813289169431035,-7372.895201659616
280,0.6772576606418613,1.8132891085136862,-7304.86283798978
281,0.6772578531709754,1.8132890452018215,-7235.457215313546
282,0.6772580534923547,1.8132889793275075,-7164.669737368227
283,0.6772582621607036,1.813288910708331,-7092.492643638703
284,0.6772584797814718,1.8132888391451918,-7018.918429769931
285,0.6772587070189434,1.8132887644196418,-6943.939154626685
286,0.6772589445914637,1.813288686295455,-6867.550057992117
287,0.6772591933129434,1.8132886045049785,-6789.73890377091
288,0.6772594540437775,1.8132885187652736,-6710.504159473579
289,0.6772597277602902,1.8132884287552777,-6629.836384884196
290,0.677260015518126,1.8132883341278436,-6547.732810021313
291,0.6772603184977833,1.8132882344947663,-6464.18760518853
292,0.6772606380129748,1.8132881294240326,-6379.194172804031
293,0.6772609755094946,1.8132880184401943,-6292.749992432226
294,0.677261332645597,1.8132879009979355,-6204.8415369938975
295,0.6772617112152073,1.813287776507324,-6115.46971735635
296,0.6772621132622143,1.813287644296227,-6024.627909025726
297,0.6772625410459225,1.8132875036216702,-5932.317728960562
298,0.6772629972201304,1.8132873536109506,-5838.519112976549
299,0.677263484663252,1.8132871933174974,-5743.236347905368
300,0.6772640067306132,1.8132870216379062,-5646.456780547759
301,0.6772645672170822,1.813286837324226,-5548.172399301765
302,0.677265170461282,1.8132866389496884,-5448.374618311013
303,0.6772658214632672,1.8132864248700094,-5347.050839842033
304,0.6772665259780417,1.813286193192633,-5244.188493615501
305,0.6772672908427257,1.8132859416691423,-5139.750430363747
306,0.6772681239322799,1.8132856677098155,-5033.709491897163
307,0.6772690345454879,1.8132853682566925,-4926.02644264053
308,0.6772700337821812,1.8132850396595195,-4816.643024616889
309,0.6772711346556418,1.8132846776387777,-4705.511307948313
310,0.6772723526399478,1.8132842771056799,-4592.580008239547
311,0.67727370713234,1.8132838316812578,-4477.721137525245
312,0.6772752213927199,1.8132833337162366,-4360.818959951728
313,0.6772769248133085,1.8132827735446284,-4241.678938905017
314,0.6772788524792741,1.8132821396281773,-4120.165877156091
315,0.6772810509197147,1.8132814166650784,-3995.9585337860303
316,0.6772835816398745,1.813280584428293,-3868.5808974989154
317,0.6772865230176258,1.8132796171417274,-3737.5480678374647
318,0.6772899794048552,1.813278480486954,-3602.2152160402134
319,0.677294097073789,1.8132771263587404,-3461.562200515102
320,0.6772990908073371,1.81327548411982,-3313.938569456739
321,0.6773052647960754,1.8132734537272703,-3157.2958692501247
322,0.6773131144322321,1.813270872253434,-2987.784078019311
323,0.6773234232819261,1.813267481988663,-2799.647178767285
324,0.6773378127949494,1.8132627496415739,-2578.643973590412
325,0.6773590444458089,1.8132557669240477,-2302.049424229633
326,0.6773899947340082,1.8132455875664275,-1943.6412674277865
327,0.6774253115634173,1.813233971572276,-1541.8891365865243
328,0.6774354356780593,1.813230641568236,-1417.4788028254025
