,time,theta,torque
0,0.0,1.9198621771937625,-135.0844310926892
1,0.013385659083907268,1.9198260855523681,-189.1498619368224
2,0.025950667044439157,1.919726487208002,-248.14098052493938
3,0.03851567500497105,1.91956313802446,-314.69212697187146
4,0.04825285705567875,1.9193925970558947,-371.68374892365364
5,0.05762266177907664,1.9191921428958,-430.86790046453694
6,0.06757969199496655,1.9189399199361215,-498.1201433539614
7,0.07753672221085646,1.918647133606485,-569.799648243328
8,0.09167054486547789,1.9181614864931895,-677.9305990057461
9,0.1051605559449135,1.9176207677286787,-788.5714926561856
10,0.11362608625145822,1.9172426534168279,-860.7180349513385
11,0.11977526074757562,1.9169491237761214,-916.1937304087924
12,0.12409465629853891,1.916733397575615,-956.680624416493
13,0.12753561536753258,1.916555889939365,-990.2654961569016
14,0.13097657443652624,1.9163733541761463,-1024.2724141664798
15,0.13396632225442776,1.9162106613518586,-1054.253327719314
16,0.13695607007232927,1.9160441532815646,-1084.4450512916942
17,0.1402617341963632,1.9158555984582475,-1118.0196084258498
18,0.14310404197002957,1.9156897253919762,-1147.4686138539444
19,0.14594634974369594,1.9155203780637595,-1177.2554600801627
20,0.14946238988990382,1.9153060694583004,-1214.611125320462
21,0.15257723335892254,1.9151117496200487,-1248.3332429283905
22,0.15569207682794126,1.9149132231801758,-1282.2907132932662
23,0.15858730087039777,1.9147249120098506,-1314.4885418815827
24,0.16148252491285428,1.9145329470663808,-1346.9906901541824
25,0.16514338076428003,1.9142849718759545,-1388.3732628981122
26,0.16779631439130613,1.9141015989634873,-1418.9005271947974
27,0.17044924801833222,1.9139151323112402,-1449.6706834097117
28,0.17386971329521864,1.9136701399741274,-1489.7435535001127
29,0.17664770515102451,1.9134673596876786,-1522.9814781913474
30,0.1794256970068304,1.9132611587413393,-1556.60778334547
31,0.18294705401505018,1.91299484991706,-1599.560357081423
32,0.18681377662499887,1.9126960517391753,-1646.7753337326194
33,0.19165644143927396,1.912312395673742,-1706.0946509431062
34,0.1963896770538099,1.9119272166808678,-1763.8929916379982
35,0.20210357799649833,1.9114487418767616,-1834.663812879193
36,0.20781747893918676,1.9109554289449449,-1906.0114732220386
37,0.21387247211800464,1.9104163786160338,-1982.2734770514392
38,0.21992746529682253,1.909860465295595,-2058.1842515698063
39,0.2245576482805112,1.909423921720998,-2115.992730723527
40,0.22779534864296547,1.9091127441938656,-2157.0075253906807
41,0.23103304900541974,1.9087966755606183,-2198.110879346171
42,0.233523129851293,1.9085502528382374,-2230.003144498107
43,0.23601321069716627,1.908300919810911,-2262.0079085600228
44,0.23921416260268072,1.907976119641136,-2303.024716381855
45,0.24168450006612546,1.9077221482701874,-2334.793121221784
46,0.2441548375295702,1.9074652881911827,-2366.3379681343
47,0.24712900797530502,1.9071521976609245,-2404.0736855500586
48,0.2494470617454014,1.9069052571482004,-2433.745829285436
49,0.2517651155154978,1.9066557525286993,-2463.538849021554
50,0.25486742125127776,1.9063178118076747,-2504.29200662648
51,0.2576178925564291,1.9060143351527212,-2540.574124000199
52,0.2600736368949818,1.9057403015293368,-2573.138893722991
53,0.26252938123353453,1.9054633583586198,-2605.5632807690913
54,0.26525808669443074,1.9051522107983023,-2641.790266256084
55,0.2677092611079473,1.9048696305217587,-2674.699184702514
56,0.27016043552146385,1.904584128713946,-2707.685488291446
57,0.27282729584951526,1.9042701777689368,-2744.0711972601107
58,0.2754941561775667,1.9039527504421168,-2780.789937596336
59,0.27794016440128594,1.903658545880346,-2815.279428304697
60,0.28019899326250586,1.9033842445282985,-2847.799255222188
61,0.2828193689764884,1.9030628902163926,-2885.994617347994
62,0.28487095427701775,1.902808924705429,-2916.971684269012
63,0.2869225395775471,1.9025528767713975,-2948.402697506181
64,0.2896715197978097,1.9022065185516994,-2991.243291989063
65,0.2932079933777711,1.9017554135376873,-3047.600943159273
66,0.29901881848199807,1.9010006395951904,-3144.558249824281
67,0.30482964358622505,1.9002289265183465,-3245.864983927177
68,0.3122740108253037,1.8992153668056828,-3382.466522351485
69,0.3187087067497497,1.8983165979270151,-3506.1024558343092
70,0.3251434026741957,1.8973966703844096,-3635.164342234759
71,0.33099175427708116,1.8965421112371812,-3756.965770411025
72,0.3368401058799666,1.895669882389059,-3883.1623469797437
73,0.34366576081427014,1.8946294341741157,-4036.3388558640477
74,0.34918761164668355,1.8937699339081615,-4165.389407082884
75,0.35424132004061853,1.8929692889631418,-4287.171683260643
76,0.36098666686572817,1.8918796811574585,-4454.947937316515
77,0.36735072762578563,1.8908295918295672,-4619.692498658491
78,0.37438900296740346,1.8896431783425385,-4808.877775205176
79,0.3818996633764865,1.8883479495396092,-5018.448653863445
80,0.3864429118610989,1.8875497689873255,-5149.638319492297
81,0.39086141628124155,1.8867628480160439,-5280.05176072648
82,0.3966116606932274,1.885722968193212,-5453.917537704156
83,0.40236190510521325,1.884665189324091,-5632.525818651416
84,0.4072109322544891,1.8837592425964242,-5786.4066300047625
85,0.41117605502344984,1.883008927979854,-5914.679097053778
86,0.41514117779241055,1.8822500421066566,-6044.8838810529915
87,0.41875528820172,1.8815508577023243,-6165.12950688823
88,0.42157754221945914,1.8809998990665822,-6260.413917315062
89,0.4243997962371983,1.8804445799327472,-6356.728332114708
90,0.42771021493759914,1.879787644427071,-6471.911654774476
91,0.431020633638,1.8791246969164548,-6588.513250062508
92,0.43391913858804115,1.8785392983719083,-6691.886484305985
93,0.43681764353808233,1.8779492823941704,-6796.090964014936
94,0.4394543546933053,1.8774085431772543,-6891.616588434359
95,0.4415148646629031,1.8769833085201546,-6966.842485179067
96,0.44357537463250085,1.8765557360711904,-7042.496525466519
97,0.4459646576035628,1.8760570121943656,-7130.880957432452
98,0.44881986384789374,1.875456908162843,-7238.445020430318
99,0.45112448582097675,1.8749692471251609,-7326.121918182781
100,0.45314798496300834,1.874538656839096,-7403.684319367144
101,0.45517148410503994,1.8741058076035162,-7481.68575807664
102,0.4576203840271554,1.8735789384143424,-7576.751505919596
103,0.4600304919702512,1.8730571832960605,-7670.5346268604835
104,0.462440599913347,1.87253222157965,-7764.79682982219
105,0.46527108054289196,1.8719116008304766,-7876.379168645187
106,0.46760515848307604,1.871396495052284,-7969.471159496372
107,0.46993923642326013,1.8708783811302856,-8063.5946648756735
108,0.47210539492849907,1.8703948504009893,-8151.327006296087
109,0.474271553433738,1.8699087290576422,-8239.58007814566
110,0.4765263327994062,1.8693999683069538,-8331.588714000833
111,0.47823801721686143,1.869011875933815,-8401.54256713899
112,0.47994970163431666,1.8686221666678797,-8471.67347150765
113,0.48111722060666623,1.868355423345121,-8521.223300742773
114,0.4822847395790158,1.8680879280145397,-8570.665069370232
115,0.4836101612202588,1.8677833436197997,-8626.913900604713
116,0.4846149608822004,1.8675517931066872,-8670.541300898283
117,0.485619760544142,1.867319685870817,-8714.331709502629
118,0.48681618017239553,1.8670425887315991,-8767.131108636162
119,0.4888512874366711,1.8665694346475334,-8857.766267611514
120,0.4916822787713283,1.8659074457245366,-8984.756647865175
121,0.4945132701059855,1.8652410434412372,-9112.485818587715
122,0.49727983218488375,1.8645855465115893,-9238.123566854538
123,0.4992758453841895,1.864110006111031,-9329.383804706675
124,0.4994635952630898,1.8640651629337033,-9330.84088654788
125,0.49964607140112466,1.8640215608013728,-9332.253527030354
126,0.49983988611898966,1.863975229310416,-9333.937561192502
127,0.5001042853784399,1.8639119912690372,-9335.161288995736
128,0.5006466598463012,1.8637821479322545,-9338.360971516515
129,0.5009645687592942,1.8637059660656479,-9338.51740528581
130,0.5012824776722872,1.863629728683282,-9339.025854426789
131,0.5018371756256339,1.863496574261428,-9339.273770935619
132,0.5021513836561551,1.8634210741237334,-9334.045998633708
133,0.5022876577613443,1.8633883123591768,-9330.552258946254
134,0.5024239318665336,1.8633555403980686,-9326.756795175823
135,0.5027833909120535,1.8632690467533102,-9316.692052063074
136,0.5036877587744771,1.8630511225128839,-9291.482021907234
137,0.5050471086230884,1.8627227175559762,-9253.771794745455
138,0.5070993112106128,1.8622250063967247,-9197.211770721613
139,0.5104874826786129,1.86139823786456,-9104.578239758623
140,0.5136950684059124,1.8606097444079142,-9017.41881557765
141,0.5196651711796387,1.8591271949413544,-8857.225679256464
142,0.5256040558808015,1.8576331209630241,-8700.408434388866
143,0.5316072039076265,1.8561034027276602,-8544.352461473598
144,0.5376667536911052,1.8545395245434766,-8389.514892178342
145,0.5434720033354484,1.8530227045596523,-8243.565736237426
146,0.5501425186258324,1.8512574652640705,-8078.361336415751
147,0.550579970924,1.851140869033491,-8067.621065517472
148,0.5508272808622688,1.8510749071304853,-8066.06751108749
149,0.55105382533341,1.8510144550878567,-8065.878880663308
150,0.5513174918127309,1.8509440627647933,-8066.103887910233
151,0.5516690466038089,1.8508501487652107,-8066.434256352933
152,0.552087899247198,1.8507381708136523,-8067.404042720679
153,0.5526617949669849,1.850584591041326,-8068.97792985203
154,0.5532612107573671,1.8504239944297052,-8068.973299373127
155,0.5541301386091616,1.8501908498076527,-8069.924024484735
156,0.5550058621264482,1.8499554751635798,-8071.953413238053
157,0.5558822411071318,1.8497195159626134,-8075.113604168661
158,0.5567413222712957,1.8494878178722525,-8079.415874372251
159,0.5575766941087003,1.8492621384139376,-8084.798773446933
160,0.5583876051647613,1.8490427129144327,-8091.2020320078755
161,0.5591781795857313,1.848828454633954,-8098.589695073032
162,0.5599526869384964,1.8486182296230331,-8106.9660236571035
163,0.5607102461059598,1.8484122975851611,-8116.349035730099
164,0.5614433826728886,1.848212715356221,-8126.737025395514
165,0.5621423920311457,1.848022158932433,-8138.06874201585
166,0.5628084133849669,1.8478403551486393,-8150.201270227707
167,0.5631085855404854,1.847758340601499,-8154.518630549079
168,0.5633117161896921,1.8477028132371804,-8162.756659008796
169,0.5635140694394362,1.847647476728228,-8171.437744614089
170,0.5639606087123444,1.8475252874716763,-8190.641190341011
171,0.5647670785927953,1.8473043417472066,-8225.19550288505
172,0.5658984763376756,1.846993798984919,-8274.017840914954
173,0.5670223912680173,1.8466846428963815,-8322.865314429275
174,0.5677970670829747,1.8464711655302035,-8356.608941826893
175,0.5685717428979321,1.8462573728602516,-8390.345093945441
176,0.5698803219979741,1.8458955197559688,-8447.377604434037
177,0.571102324971475,1.8455567963877346,-8501.021867950854
178,0.5728303505788381,1.8450764758647438,-8577.381953629476
179,0.5754231255539641,1.844352864091721,-8692.701489989278
180,0.5758348905310476,1.8442376229356836,-8702.70800112975
181,0.5760286231480884,1.8441833722063792,-8710.896252910266
182,0.5762223557651293,1.8441291019334578,-8719.47397846473
183,0.5765523933556562,1.8440366035859599,-8733.959669207186
184,0.5770297046845997,1.8439027291377201,-8755.022552621174
185,0.5778522358033048,1.8436717507604927,-8791.171661072816
186,0.5789727681637201,1.8433565238026939,-8840.249471154219
187,0.5799044365188686,1.8430939317223627,-8881.43593041502
188,0.580836104874017,1.8428308896881596,-8922.729667177073
189,0.581672712185417,1.8425943036370773,-8960.151655750686
190,0.5825093194968171,1.8423573555339454,-8997.709882905017
191,0.5834528196564591,1.842089698766773,-9040.410363822934
192,0.5843963198161012,1.8418215825149018,-9083.227153767639
193,0.5856140886251783,1.84147484842952,-9138.586714365269
194,0.5876991700858454,1.8408793933592305,-9234.160757849368
195,0.5897842515465125,1.8402817061556331,-9330.379408550021
196,0.5914693368575404,1.8397970507886432,-9408.635717876847
197,0.5921959892556251,1.8395876069806536,-9442.530164399981
198,0.5929226416537098,1.8393778936622687,-9476.423245400654
199,0.5941537376095253,1.8390219825807852,-9533.897868659702
200,0.5954447085872138,1.8386479328513643,-9594.293167412941
201,0.5957628795181245,1.838555614924675,-9601.612623823563
202,0.5960810504490351,1.8384632455770387,-9607.27582145583
203,0.5963949204544242,1.838372074485605,-9621.398166504869
204,0.5965341514753525,1.838331615477751,-9622.40409827108
205,0.5966030518306566,1.838311590151772,-9620.59315792777
206,0.5966719521859608,1.838291562417238,-9618.554243451541
207,0.5968527773328536,1.8382389892892963,-9613.144223118226
208,0.5972283986411735,1.8381297280998294,-9601.939680461874
209,0.5978065868323132,1.8379614042418488,-9584.770574383743
210,0.5991120332518314,1.8375807362856762,-9546.125348591006
211,0.6009957401274343,1.8370299295101231,-9490.581979615172
212,0.6028058590662272,1.8364989545908734,-9437.312604081693
213,0.6047204076334737,1.8359355536677875,-9381.199639887136
214,0.6073017219697388,1.8351730324808437,-9306.20830041772
215,0.609712183865491,1.8344579757930946,-9236.522898305744
216,0.6128306717276137,1.8335285965914585,-9147.06124468665
217,0.6160022728330823,1.832578449034075,-9056.624220277103
218,0.620412645912445,1.831248958827989,-8932.382124134178
219,0.62513915632051,1.8298136121288975,-8800.80484709888
220,0.6288104497036496,1.8286912314969335,-8699.739779877607
221,0.6324817430867893,1.8275623554874845,-8599.772763009567
222,0.6369404698536194,1.8261826820421225,-8479.369636063417
223,0.6419426026076681,1.8246236335912562,-8346.115455063631
224,0.6481034793226419,1.822687280377038,-8184.764217101385
225,0.6530328591329321,1.8211252848735466,-8056.999929525381
226,0.6579622389432223,1.819552125742849,-7931.349453249355
227,0.6640353966503055,1.8175987686966408,-7779.23884618474
228,0.6688651444713271,1.8160335227428401,-7659.826725720633
229,0.6736948922923486,1.8144579345034513,-7542.330546302208
230,0.6744945186430354,1.814196086126943,-7523.2176539632
231,0.6752941449937223,1.8139339580549474,-7504.1751251616415
232,0.6759463900894324,1.813719936763919,-7488.683796400733
233,0.6762236606242946,1.813628899751077,-7487.86135412102
234,0.6764810138644927,1.8135443722736593,-7488.167096416668
235,0.6767903315381733,1.8134427389683225,-7489.304260768628
236,0.6771231623638428,1.8133333334040291,-7491.598572139645
237,0.6774014963596715,1.8132418046468597,-7499.917242161525
238,0.677651997811594,1.8131593997154667,-7509.995912856148
239,0.67800099527475,1.8130445481437383,-7523.725299475656
240,0.6784190916552293,1.8129068872706402,-7539.497160771623
241,0.6784191244706257,1.8129068764629905,-7532.71259430249
242,0.6784191540938181,1.812906866706683,-7525.701966322804
243,0.6784191924301336,1.8129068540807347,-7516.27062703437
244,0.6784192396042719,1.8129068385440756,-7504.241288056514
245,0.6784192953785843,1.812906820174974,-7489.541597658259
246,0.6784193592658592,1.812906799133891,-7472.186680185332
247,0.678419430639443,1.8129067756272124,-7452.25590829351
248,0.6784195088236035,1.812906749877488,-7429.86971965985
249,0.6784195931578507,1.8129067221022475,-7405.170041368982
250,0.6784196830372519,1.8129066925007231,-7378.305505221033
251,0.6784197779346075,1.812906661246546,-7349.42110098201
252,0.6784198774094508,1.8129066284847821,-7318.651640124557
253,0.6784199811062745,1.812906594332516,-7286.1188662358145
254,0.6784200887554042,1.812906558878564,-7251.928282896249
255,0.678420200158593,1.8129065221882172,-7216.171351245774
256,0.6784203151864745,1.8129064843040819,-7178.924553264137
257,0.678420433764703,1.812906445250643,-7140.252555072545
258,0.6784205558689068,1.8129064050359265,-7100.208956859923
259,0.6784206815227292,1.8129063636521454,-7058.836382055576
260,0.6784208107857197,1.8129063210796863,-7016.170143425602
261,0.6784209437587053,1.8129062772853417,-6972.236417156251
262,0.6784210805647009,1.812906232228596,-6927.058580017353
263,0.6784212213630766,1.8129061858569606,-6880.652767974604
264,0.6784213663366727,1.8129061381102165,-6833.032462543919
265,0.6784215156971396,1.8129060889186563,-6784.207124523185
266,0.6784216696794915,1.8129060382048778,-6734.184508398005
267,0.6784218285408807,1.8129059858841874,-6682.97156211826
268,0.6784219925751699,1.8129059318598009,-6630.570404106544
269,0.6784221621026862,1.812905876026218,-6576.982449918645
270,0.6784223374646241,1.8129058182710658,-6522.2109017685525
271,0.6784225190419204,1.812905758468882,-6466.2556467565155
272,0.6784227072451908,1.8129056964844295,-6409.117433117407
273,0.6784229025341523,1.8129056321662995,-6350.793112945164
274,0.6784231053985411,1.8129055653531962,-6291.282620049725
275,0.6784233163727688,1.81290549586911,-6230.585782382429
276,0.6784235360373211,1.812905423522856,-6168.703287982991
277,0.6784237650412936,1.8129053481006532,-6105.632062398272
278,0.678424004079259,1.8129052693737417,-6041.373441179442
279,0.678424253938738,1.8129051870827493,-5975.922418978577
280,0.6784245154637311,1.8129051009497015,-5909.279636399259
281,0.6784247895878438,1.8129050106671118,-5841.4449376165485
282,0.6784250773364857,1.8129049158972579,-5772.419549081104
283,0.6784253798658353,1.8129048162593473,-5702.199859624946
284,0.6784256984427687,1.8129047113361292,-5630.785847858458
285,0.6784260345062797,1.8129046006536642,-5558.1711831980965
286,0.6784263896084054,1.8129044837007813,-5484.360344216664
287,0.6784267655221546,1.8129043598935308,-5409.350147431558
288,0.6784271642067122,1.8129042285866441,-5333.142609854705
289,0.6784275878607929,1.8129040890559616,-5255.740029511153
290,0.6784280390214942,1.8129039404658744,-5177.134379920501
291,0.6784285204918783,1.812903781893175,-5097.328375210576
292,0.678429035498523,1.8129036122751674,-5016.316871218155
293,0.6784295878357133,1.8129034303621754,-4934.077077105343
294,0.6784301816362422,1.81290323479303,-4850.614766004406
295,0.6784308219419045,1.8129030239071742,-4765.895502908052
296,0.6784315142187176,1.8129027959043238,-4679.927672767663
297,0.6784322650540177,1.8129025486148755,-4592.6867923568025
298,0.6784330822131223,1.812902279481242,-4504.136673725564
299,0.6784339746894704,1.8129019855413335,-4414.248900095392
300,0.6784349534018604,1.8129016631989152,-4322.961679307049
301,0.6784360309840299,1.8129013082929022,-4230.235859072216
302,0.6784372227375977,1.812900915783495,-4136.006437686955
303,0.6784385480655036,1.8129004792800552,-4040.1295978420353
304,0.6784400294798628,1.812899991367853,-3942.5217741186875
305,0.6784416963355224,1.8128994423783724,-3842.97556987654
306,0.6784435847616432,1.8128988204118015,-3741.2790359604737
307,0.6784457391373316,1.8128981108509628,-3637.227595150878
308,0.678448222183476,1.8128972930373903,-3530.2945976389865
309,0.6784511143780169,1.8128963404637477,-3419.925015984562
310,0.678454519671416,1.812895218891141,-3305.512859166804
311,0.6784585907414092,1.8128938780307513,-3185.879894622921
312,0.678463541821724,1.8128922473177256,-3059.4612124907862
313,0.6784696949519332,1.8128902206766269,-2923.756177173283
314,0.6784775752659538,1.812887625133367,-2774.2863703250064
315,0.6784879901773717,1.8128841947271341,-2604.3290700378416
316,0.6785021880380973,1.8128795182381865,-2402.4709457082886
317,0.6785214000141941,1.8128731900617663,-2154.651642212734
318,0.6785442308767967,1.8128656696630765,-1864.5095131054622
319,0.678556770387592,1.8128615391002088,-1692.4545326392147
320,0.6785680915896904,1.8128578097943973,-1525.4348225709982
321,0.6785794244445393,1.8128540765944743,-1344.6745997241617
322,0.6785902120355422,1.8128505229603735,-1158.858058206784
323,0.6786001310027924,1.8128472554227018,-976.9967730723945
324,0.6786037064608921,1.8128460775735005,-904.9384599261591
325,0.6786069421404013,1.812845011651462,-838.2351287404465
326,0.6786105346066865,1.812843828188712,-763.297025846993
327,0.6786143988326229,1.8128425551942002,-682.2622093001298
328,0.6786184533967522,1.8128412194895,-597.5974452963093
329,0.678622624750085,1.812839845303226,-511.95464793679616
