,time,theta,torque
0,0.0,1.9198621771937625,-135.0844310926892
1,0.0037942177003615447,1.9198592776454062,-148.82936750987264
2,0.005822654243999078,1.919855348576801,-156.69484311021318
3,0.00785109078763661,1.9198497618802348,-164.23427403110017
4,0.007857059296593394,1.919849742995798,-161.0364641690285
5,0.007862485397479475,1.9198497258150915,-157.74189730560695
6,0.00787009853733132,1.919849701689548,-153.00109422843977
7,0.007880084835215033,1.919849670008215,-146.68389264827235
8,0.00789250070117416,1.9198496305630928,-138.78605486758372
9,0.007907288279601419,1.9198495835020164,-129.4263008885508
10,0.007924309632280364,1.9198495292229392,-118.82052645000189
11,0.007943377891284402,1.9198494682778862,-107.25051645946529
12,0.007964278974575174,1.9198494013065526,-95.03578320201474
13,0.007986802552138407,1.9198493289393779,-82.50138366483534
14,0.008010750153444286,1.9198492517726893,-69.96327409610339
15,0.008035942991151717,1.919849170344059,-57.71734577109026
16,0.00806223140059685,1.919849085101665,-46.031958906731006
17,0.008089498582891983,1.9198489963913292,-35.14715301036484
18,0.008117646120754218,1.9198489045026388,-25.282747688407063
19,0.008146599705554787,1.9198488096495137,-16.638109709705123
20,0.008176332637938441,1.9198487118916874,-9.390818567612895
21,0.008206822972429154,1.9198486112737052,-3.714721872574409
22,0.008238067194858374,1.919848507779315,-0.0
23,0.008270797376360859,1.9198483989409536,-0.0
24,0.008304228276158525,1.9198482873268887,-0.0
25,0.008338434015005145,1.9198481726598209,-0.0
26,0.008373546834764156,1.9198480544616225,-0.0
27,0.008409708443646158,1.9198479322137065,-0.0
28,0.008447081239362445,1.9198478053176038,-0.0
29,0.00848585169938953,1.9198476730811198,-0.0
30,0.008526227808252133,1.9198475347243693,-0.0
31,0.00856847666433388,1.9198473892470158,-0.0
32,0.00861286085845054,1.9198472356423104,-0.0
33,0.008659722121645291,1.9198470726035426,-0.0
34,0.0087094684990294,1.9198468985587371,-0.0
35,0.008762612273472793,1.919846711526057,-0.0
36,0.008819695751930907,1.9198465093604518,-0.0
37,0.008881455273846466,1.9198462891555845,-0.0
38,0.008948642178512474,1.9198460478538715,-0.0
39,0.009022165941993562,1.919845781709049,-0.0
40,0.009034446034263396,1.9198457370447044,-0.0
41,0.009045669917281639,1.9198456961687862,-0.0
42,0.009086843591948482,1.9198455457849866,-0.0
43,0.009194424512749178,1.9198451496295048,-0.0
44,0.009400875551454599,1.9198443763334208,-0.0
45,0.010018001976001301,1.9198419623861807,-0.0
46,0.011496721109772848,1.919835553804508,-0.0
47,0.013171339756243279,1.9198272321495613,-0.0
48,0.016244453151268063,1.919809020433568,-0.0
49,0.02112087329365535,1.9197723065942964,-0.0
50,0.025957288848494995,1.9197264179246138,-0.0
51,0.03079370440333464,1.9196710848453507,-0.0
52,0.035252714655545636,1.9196116942805,-0.0
53,0.04006571961293988,1.9195385616798095,-0.0
54,0.04415070000344417,1.9194691302663518,-0.0
55,0.04823568039394846,1.9193929317570682,-0.0
56,0.051920866297548725,1.9193183774816645,-0.0
57,0.05525633344150575,1.9192461382775923,-0.0
58,0.058324654202437855,1.9191756860052636,-0.0
59,0.06276881267944505,1.9190668386317162,-0.0
60,0.06807222521539699,1.9189263921290534,-0.0
61,0.07337563775134893,1.918774435885249,-0.0
62,0.07840178792657002,1.918619774992268,-0.0
63,0.0834279381017911,1.918454724390652,-0.0
64,0.08791185054781141,1.9182986885570836,-0.0
65,0.09163341715176468,1.9181628703530456,-0.0
66,0.09535498375571795,1.9180213139831574,-0.0
67,0.10071161026388058,1.9178074655924415,-0.0
68,0.1074442909477005,1.9175217210372046,-0.0
69,0.11417824669930746,1.9172169466381246,-0.0
70,0.12091220245091441,1.916893105607314,-0.0
71,0.12697609551461594,1.9165850956821269,-0.0
72,0.13303998857831748,1.9162614770586122,-0.0
73,0.13978401360064774,1.9158831371038736,-0.0
74,0.14500596326787651,1.9155767922562656,-0.0
75,0.14870248713068548,1.915352839063227,-0.0
76,0.15239901099349445,1.9151229813910047,-0.0
77,0.15515091207586992,1.9149480170830173,-0.0
78,0.1579028131582454,1.9147697619077257,-0.0
79,0.16143118361870987,1.914536383076614,-0.0
80,0.1647396015874295,1.9143126106275326,-0.0
81,0.16804801955614915,1.9140840403303148,-0.0
82,0.1728227179500432,1.9137456799956567,-0.0
83,0.1790455727270559,1.913289576423077,-0.0
84,0.18543517880279115,1.9128033482756344,-0.0
85,0.1918247848785264,1.912298869395084,-0.0
86,0.19699434593454196,1.9118772819660343,-0.0
87,0.20216390699055753,1.9114436109942985,-0.0
88,0.2081451256585045,1.9109266897749206,-0.0
89,0.2134819965539884,1.9104516485465903,-0.0
90,0.2188188674494723,1.9099635122879433,-0.0
91,0.22517857123751653,1.909364622699702,-0.0
92,0.23018200999657534,1.9088802298992442,-0.0
93,0.23518544875563416,1.908384127412676,-0.0
94,0.24119101661855968,1.9077731131546896,-0.0
95,0.24643747034047755,1.9072253709829758,-0.0
96,0.2516839240623954,1.9066645350027405,-0.0
97,0.2573324125055998,1.9060460030956883,-0.0
98,0.26139913347362753,1.905591182349965,-0.0
99,0.26411204006151967,1.9052833309678545,-0.0
100,0.2668249466494118,1.9049719139923809,-0.0
101,0.26963323347028456,1.9046457818218527,-0.0
102,0.26963396389913524,1.9046456964962886,-0.0
103,0.26963462235268204,1.9046456195783479,-0.0
104,0.26963549311561275,1.9046455178589397,-0.0
105,0.26963657100029836,1.9046453919437978,-0.0
106,0.2696378333686348,1.9046452444771291,-0.0
107,0.26963924107724074,1.9046450800312629,-0.0
108,0.2696407430046491,1.9046449045778693,-0.0
109,0.2696422828629019,1.904644724692298,-0.0
110,0.26964380352736766,1.9046445470478026,-0.0
111,0.2696452528808964,1.9046443777328246,-0.0
112,0.26964557714173093,1.9046443398521984,-0.0
113,0.2696458696757171,1.9046443056779052,-0.0
114,0.2696462332896658,1.904644263199878,-0.0
115,0.26964665653681014,1.9046442137553135,-0.0
116,0.2696471209652634,1.9046441594997672,-0.0
117,0.26964760367174617,1.9046441031088301,-0.0
118,0.2696480799625347,1.9046440474672788,-0.0
119,0.269648196866751,1.9046440338102018,-0.0
120,0.2696483027541599,1.9046440214401332,-0.0
121,0.2696484343355762,1.90464400606841,-0.0
122,0.26964858701664296,1.9046439882317536,-0.0
123,0.2696487534350784,1.9046439687902441,-0.0
124,0.2696489244281303,1.9046439488142999,-0.0
125,0.269649090287826,1.9046439294380368,-0.0
126,0.269649127926416,1.904643925040974,-0.0
127,0.2696491620422446,1.9046439210554509,-0.0
128,0.2696492044013447,1.9046439161069209,-0.0
129,0.26964925349765123,1.904643910371327,-0.0
130,0.26964930693498873,1.9046439041285983,-0.0
131,0.26964936173314974,1.9046438977268922,-0.0
132,0.26964941473524484,1.9046438915350072,-0.0
133,0.2696494268531071,1.9046438901193572,-0.0
134,0.2696494378419676,1.904643888835601,-0.0
135,0.26964945148064695,1.9046438872422837,-0.0
136,0.2696494672994365,1.9046438853942784,-0.0
137,0.26964948455111454,1.904643883378878,-0.0
138,0.26964950231067575,1.9046438813041446,-0.0
139,0.2696495196038686,1.904643879283894,-0.0
140,0.2696495242980002,1.9046438787355093,-0.0
141,0.2696495285228085,1.9046438782419526,-0.0
142,0.26964953364229083,1.904643877643877,-0.0
143,0.2696495394699474,1.9046438769630698,-0.0
144,0.26964954574126565,1.9046438762304325,-0.0
145,0.26964955215234004,1.9046438754814685,-0.0
146,0.2696495584053141,1.9046438747509744,-0.0
147,0.26964956425357567,1.90464387406776,-0.0
148,0.2696495656275916,1.9046438739072427,-0.0
149,0.2696495668674536,1.9046438737623976,-0.0
150,0.26964956839964216,1.904643873583402,-0.0
151,0.2696495701871232,1.904643873374582,-0.0
152,0.26964957041623816,1.9046438733478162,-0.0
153,0.2696495705152322,1.9046438733362514,-0.0
154,0.2696495705618789,1.904643873330802,-0.0
155,0.26964957060852557,1.9046438733253526,-0.0
156,0.26964957071631884,1.9046438733127597,-0.0
157,0.2696495707365508,1.904643873310396,-0.0
158,0.2696495707567828,1.9046438733080324,-0.0
159,0.269649570784632,1.904643873304779,-0.0
160,0.26964957081248114,1.9046438733015256,-0.0
161,0.26964957088368907,1.904643873293207,-0.0
162,0.2696495709474566,1.9046438732857573,-0.0
163,0.26964957101122417,1.9046438732783078,-0.0
164,0.26964957114905674,1.9046438732622057,-0.0
165,0.26964957140395024,1.9046438732324282,-0.0
166,0.26964957140722934,1.9046438732320452,-0.0
167,0.26964957141006884,1.9046438732317135,-0.0
168,0.26964957141290835,1.9046438732313817,-0.0
169,0.2696495714157201,1.9046438732310533,-0.0
170,0.2696495714183273,1.9046438732307487,-0.0
171,0.2696495714207213,1.904643873230469,-0.0
172,0.2696495714225348,1.904643873230257,-0.0
173,0.26964957142407103,1.9046438732300777,-0.0
174,0.26964957142560725,1.9046438732298983,-0.0
175,0.2696495714309154,1.904643873229278,-0.0
176,0.2696495714358368,1.9046438732287032,-0.0
177,0.2696495714395462,1.9046438732282698,-0.0
178,0.26964957144295065,1.904643873227872,-0.0
179,0.2696495714463051,1.9046438732274802,-0.0
180,0.2696495714496595,1.9046438732270883,-0.0
181,0.26964957145329005,1.9046438732266642,-0.0
182,0.2696495714568425,1.9046438732262492,-0.0
183,0.2696495714628125,1.9046438732255517,-0.0
184,0.2696495714877646,1.9046438732226367,-0.0
185,0.2696495715009314,1.9046438732210986,-0.0
186,0.2696495715109301,1.9046438732199304,-0.0
187,0.26964957152092883,1.9046438732187623,-0.0
188,0.2696495715314852,1.904643873217529,-0.0
189,0.2696495715424977,1.9046438732162425,-0.0
190,0.2696495715888819,1.9046438732108237,-0.0
191,0.26964957163526615,1.904643873205405,-0.0
192,0.2696495716399399,1.904643873204859,-0.0
193,0.26964957164219483,1.9046438732045956,-0.0
194,0.26964957164444975,1.9046438732043323,-0.0
195,0.2696495716573121,1.9046438732028297,-0.0
196,0.2696495716701745,1.904643873201327,-0.0
197,0.2696495717987983,1.904643873186301,-0.0
198,0.26964957308503607,1.9046438730360382,-0.0
199,0.2696495859474139,1.9046438715334102,-0.0
200,0.26964961167216955,1.9046438685281541,-0.0
201,0.2696496121887884,1.9046438684678009,-0.0
202,0.26964961227106193,1.9046438684581894,-0.0
203,0.2696496123184251,1.9046438684526563,-0.0
204,0.2696496123432103,1.9046438684497609,-0.0
205,0.26964961236799545,1.9046438684468654,-0.0
206,0.2696496126158472,1.9046438684179106,-0.0
207,0.2696496150943646,1.9046438681283615,-0.0
208,0.2696496398795385,1.9046438652328703,-0.0
209,0.26964980105160624,1.904643846404175,-0.0
210,0.26965054899321195,1.9046437590268055,-0.0
211,0.2696506401485182,1.904643748377679,-0.0
212,0.26965065837957947,1.9046437462478532,-0.0
213,0.26965067661064074,1.9046437441180273,-0.0
214,0.2696507792731365,1.9046437321245782,-0.0
215,0.26965180589809434,1.9046436121898054,-0.0
216,0.26965923963476524,1.9046427437331794,-0.0
217,0.2696799343392621,1.9046403259037337,-0.0
218,0.26971023430097535,1.9046367854845132,-0.0
219,0.26988025355556905,1.9046169111736402,-0.0
220,0.27046176658797877,1.9045488290120218,-0.0
221,0.2719391877420382,1.9043751141848433,-0.0
222,0.2755494203715744,1.9039461356997476,-0.0
223,0.28055395747002415,1.9033409110742725,-0.0
224,0.28533246644576554,1.902751507403803,-0.0
225,0.291296414064574,1.9020000238661436,-0.0
226,0.30742826155300224,1.8998783077509014,-0.0
227,0.3082833444925496,1.8997621892854621,-0.0
228,0.3090092621270426,1.8996633207795772,-0.0
229,0.3097351797615356,1.8995641853903773,-0.0
230,0.3102558687443851,1.8994929127064353,-0.0
231,0.31074428229087225,1.8994259329806158,-0.0
232,0.311409644909024,1.8993344922063007,-0.0
233,0.31148007156994423,1.8993248003221233,-0.0
234,0.31155049823086445,1.8993151059201323,-0.0
235,0.31177146095105057,1.8992846735175972,-0.0
236,0.311978508926086,1.8992561350441048,-0.0
237,0.312624169772522,1.8991670005069035,-0.0
238,0.31355955401159025,1.8990374933832581,-0.0
239,0.3141959507395576,1.8989491277426147,-0.0
240,0.3148303514903366,1.8988608341087971,-0.0
241,0.3152631911931569,1.898800475416999,-0.0
242,0.3153178439226826,1.8987928474101914,-0.0
243,0.3153724966522083,1.898785217881735,-0.0
244,0.31544830252207284,1.8987746328528277,-0.0
245,0.3155392349282621,1.8987619317922078,-0.0
246,0.3158843846038766,1.898713684370417,-0.0
247,0.31625117643810596,1.8986623451063753,-0.0
248,0.3167610284895022,1.8985908679822605,-0.0
249,0.31727088054089847,1.8985192582550934,-0.0
250,0.3177890645150774,1.8984463423580593,-0.0
251,0.31826774475213754,1.8983788633817882,-0.0
252,0.3187464249891977,1.8983112673605247,-0.0
253,0.31988702149448617,1.8981497279309216,-0.0
254,0.32197821696979234,1.8978518287348547,-0.0
255,0.326069358239135,1.8972625437350465,-0.0
256,0.3276217110113289,1.8970366924283961,-0.0
257,0.328432808555638,1.89691819249373,-0.0
258,0.32918106077437015,1.8968085734374849,-0.0
259,0.3298067005761068,1.8967166954436174,-0.0
260,0.3304323403778434,1.896624615441717,-0.0
261,0.3318308928017627,1.8964180491559266,-0.0
262,0.33288420508887084,1.896261807346436,-0.0
263,0.3334912005829989,1.8961715086882154,-0.0
264,0.334098196077127,1.8960810192775497,-0.0
265,0.33484431014226546,1.8959695289222849,-0.0
266,0.3355904242074039,1.8958577500240885,-0.0
267,0.3361228325131603,1.8957778108915375,-0.0
268,0.33653372538408116,1.8957160162956674,-0.0
269,0.33694461825500205,1.8956541340646844,-0.0
270,0.33723767239381414,1.8956099452960191,-0.0
271,0.3375134558243639,1.895568319988212,-0.0
272,0.33777805996773813,1.8955283448828677,-0.0
273,0.3379868668728268,1.8954967736709767,-0.0
274,0.3381956737779155,1.895465179800084,-0.0
275,0.33839050606971516,1.8954356799424288,-0.0
276,0.33863188962126034,1.8953991043162939,-0.0
277,0.33882129514918796,1.8953703834434297,-0.0
278,0.3390107006771156,1.8953416439136832,-0.0
279,0.33920626245229635,1.895311950683628,-0.0
280,0.33946927475420696,1.8952719846925767,-0.0
281,0.3398313185005167,1.8952169115171147,-0.0
282,0.3401776278277628,1.8951641679803943,-0.0
283,0.340564370734031,1.8951051925332605,-0.0
284,0.34092507758149526,1.8950501171856882,-0.0
285,0.3415318773419667,1.8949573136443374,-0.0
286,0.3418979160607555,1.894901239134647,-0.0
287,0.34226395477954424,1.8948450947674327,-0.0
288,0.34259459955460425,1.8947943191844134,-0.0
289,0.34298702813336535,1.8947339817332067,-0.0
290,0.34334624365216887,1.89467868047197,-0.0
291,0.34392407576729817,1.8945895818367433,-0.0
292,0.3443509612131003,1.8945236463825978,-0.0
293,0.34471705208604,1.8944670252472262,-0.0
294,0.3450492958864809,1.8944155784168846,-0.0
295,0.3454379205075665,1.8943553279857845,-0.0
296,0.3457882675427298,1.8943009442351162,-0.0
297,0.3462207668352746,1.894233719587901,-0.0
298,0.34661159890945814,1.8941728872191954,-0.0
299,0.3469916813240354,1.8941136513391552,-0.0
300,0.34801213587801577,1.8939542392188171,-0.0
301,0.3490146509100267,1.8937970982378691,-0.0
302,0.3498209025255924,1.8936703385714304,-0.0
303,0.3505937636266316,1.8935485084060113,-0.0
304,0.3509582958063829,1.8934909364463972,-0.0
305,0.3513228279861342,1.8934332946983328,-0.0
306,0.3516559341491217,1.8933805611575052,-0.0
307,0.35192184133392507,1.893338423938668,-0.0
308,0.35214945109524515,1.893302326036505,-0.0
309,0.3523770608565652,1.8932662009012962,-0.0
310,0.3526036314335934,1.89323021364887,-0.0
311,0.35290976260545004,1.893181546540949,-0.0
312,0.35328029741333655,1.8931225749447649,-0.0
313,0.35365083222122307,1.8930635311128499,-0.0
314,0.354556962028378,1.8929188370548078,-0.0
315,0.3552257229712921,1.8928117695863818,-0.0
316,0.35589448391420625,1.8927044664596298,-0.0
317,0.35689030206270556,1.8925442498219627,-0.0
318,0.3576839561774212,1.8924161846238428,-0.0
319,0.35844893601060274,1.8922924316416607,-0.0
320,0.35941434609793665,1.892135813274535,-0.0
321,0.3597012984093095,1.8920891660733674,-0.0
322,0.3599583019310208,1.8920473504171496,-0.0
323,0.3602153054527321,1.892005499834008,-0.0
324,0.3604566450975817,1.8919661681598703,-0.0
325,0.3606985643983249,1.8919267110962679,-0.0
326,0.36102174342763216,1.8918739522492314,-0.0
327,0.3613228353444533,1.8918247493794897,-0.0
328,0.36162535085567615,1.8917752655463504,-0.0
329,0.36193265131022406,1.8917249494109716,-0.0
330,0.3622583326734991,1.8916715690756034,-0.0
331,0.36264804424348945,1.8916076201235186,-0.0
332,0.3634315711652222,1.8914788052672364,-0.0
333,0.3653404045879812,1.8911636230614226,-0.0
334,0.3688349536129554,1.8905815973460756,-0.0
335,0.37140028852482304,1.8901501990422853,-0.0
336,0.37208624524797324,1.890034251246582,-0.0
337,0.37277220197112343,1.8899180524921395,-0.0
338,0.37343591631052303,1.889805382528644,-0.0
339,0.3744638664702391,1.8896304169016407,-0.0
340,0.3757962245234887,1.8894027985126893,-0.0
341,0.3771285825767383,1.8891742309990576,-0.0
342,0.37987785908586613,1.8886995861389966,-0.0
343,0.38166093582910066,1.888389583739943,-0.0
344,0.3834440125723352,1.8880778750651295,-0.0
345,0.3858427933094118,1.8876558369792722,-0.0
346,0.3893033115009254,1.8870415424229372,-0.0
347,0.3954212312102801,1.885939713999885,-0.0
348,0.40091031932909693,1.8849339058042553,-0.0
349,0.40639940744791375,1.8839117510285044,-0.0
350,0.41446487806769255,1.882380086209583,-0.0
351,0.42227024962612675,1.8808640028630805,-0.0
352,0.4336691468588299,1.8785899700206439,-0.0
353,0.46458560304698127,1.8720623068640592,-0.0
354,0.5058278607213862,1.8625336375476371,-0.0
355,0.5438062229136028,1.852934826555292,-0.0
356,0.5598670657135926,1.8486414854525675,-0.0
357,0.5678298394017298,1.8464621274982485,-0.0
358,0.5757926130898671,1.8442494592296321,-0.0
359,0.5810870461130965,1.8427599634754688,-0.0
360,0.5863814791363259,1.8412559579099228,-0.0
361,0.5941177547731579,1.839032396194874,-0.0
362,0.6014678854724862,1.836891590865339,-0.0
363,0.6095049847275396,1.834519554563635,-0.0
364,0.6170706328624783,1.832257272833698,-0.0
365,0.6261862826519231,1.8294941513112537,-0.0
366,0.6366066757788068,1.8262862964300757,-0.0
367,0.6429815046846046,1.824298353052368,-0.0
368,0.6453236169039251,1.8235631813899578,-0.0
369,0.6466737008715826,1.8231382356128798,-0.0
370,0.6476826769480152,1.8228201010305585,-0.0
371,0.6486916530244478,1.8225014934377206,-0.0
372,0.6503993057659575,1.821961187529704,-0.0
373,0.652532707039982,1.8212842812357062,-0.0
374,0.6542828330783564,1.8207274208165087,-0.0
375,0.6560329591167309,1.8201691569323786,-0.0
376,0.6574792513425891,1.819706756102278,-0.0
377,0.6589255435684473,1.8192434034550649,-0.0
378,0.660179653865042,1.8188408525081199,-0.0
379,0.6614337641616366,1.818437590164154,-0.0
380,0.6646056845412819,1.8174144896069568,-0.0
381,0.669664133469817,1.815773582708726,-0.0
382,0.6750950754058659,1.8139992418009352,-0.0
383,0.6811721231909335,1.811998546872275,-0.0
384,0.6908885245426446,1.8087667906472529,-0.0
385,0.7006049258943557,1.8054954334197113,-0.0
386,0.7138969545994893,1.8009579746412776,-0.0
387,0.7204856799840665,1.7986828935984174,-0.0
388,0.7270744053686438,1.7963910935433551,-0.0
389,0.7315846239299452,1.7948128117560385,-0.0
390,0.7360948424912466,1.7932269674217685,-0.0
391,0.7444889405566891,1.7902557544382345,-0.0
392,0.7529742841508562,1.787226751447539,-0.0
393,0.7548729885268716,1.786545539937196,-0.0
394,0.7561001681243311,1.7861045972662377,-0.0
395,0.7567374566814032,1.785875407488277,-0.0
396,0.7573747452384754,1.785646079252958,-0.0
397,0.759078762555121,1.7850322111508343,-0.0
398,0.7617286484664593,1.784075648515508,-0.0
399,0.765942161379907,1.7825498129258774,-0.0
400,0.7697857160165553,1.7811528452779035,-0.0
401,0.7707616242647757,1.7807973778517758,-0.0
402,0.771737532512996,1.780441602265071,-0.0
403,0.7740812830505479,1.7795859163843002,-0.0
404,0.7778322362966804,1.7782128263226296,-0.0
405,0.7815005020890274,1.7768657206095422,-0.0
406,0.7851687678813745,1.7755144393873228,-0.0
407,0.7873026676721718,1.7747264765425441,-0.0
408,0.7873383066700864,1.7747133047489676,-0.0
409,0.787373945668001,1.7747001325703788,-0.0
410,0.7873887852037537,1.7746946477623802,-0.0
411,0.7874036247395063,1.7746891628876431,-0.0
412,0.7875463465355494,1.7746364077515244,-0.0
413,0.787967059561551,1.7744808611221774,-0.0
414,0.7889597705826806,1.774113622608995,-0.0
415,0.7898542207324805,1.7737824800369844,-0.0
416,0.7900181630312676,1.7737217594019905,-0.0
417,0.7901821053300547,1.7736610307081144,-0.0
