,time,theta,torque
0,0.0,1.9198621771937625,-135.0844310926892
1,0.013385659083907268,1.9198260855523681,-189.15282301597242
2,0.02700629329183054,1.9197152187041906,-253.46355443815895
3,0.040626927499753815,1.91952942364771,-327.05564082195366
4,0.052759400092607885,1.919300642429688,-399.9881476948337
5,0.061876791141390525,1.9190893325649667,-459.6994955576985
6,0.07076433677900613,1.9188506964333436,-521.6777260813357
7,0.08133317503059057,1.9185247774808463,-599.7641486032265
8,0.091902013282175,1.9181528461007415,-682.305843870238
9,0.09782558176706006,1.9179241650055223,-730.557828737061
10,0.10374915025194513,1.917680891242224,-780.1901333527738
11,0.11063683932961013,1.917379599571741,-840.4216002115162
12,0.11752452840727513,1.9170584103989419,-902.5462341083916
13,0.1235491030363301,1.9167610799424104,-958.3497015745368
14,0.12957367766538508,1.9164483829122987,-1015.6772501730065
15,0.1369885328684065,1.9160423243587565,-1088.0818818346063
16,0.14246763315587524,1.9157271668814941,-1142.4003363467746
17,0.14794673344334397,1.9153991058234423,-1197.939525663792
18,0.15600470955531057,1.9148930646030815,-1281.5573128554895
19,0.16387961008147434,1.914371239024243,-1363.6358315161538
20,0.1698314210464359,1.9139588342426703,-1427.6509842392695
21,0.17578323201139745,1.9135308283287118,-1492.9333025228261
22,0.18132431518581452,1.9131182582235466,-1555.7559037042774
23,0.18507006984255683,1.9128316224336817,-1598.5802835473994
24,0.18881582449929915,1.9125387168520522,-1641.9627907819274
25,0.19281947814111774,1.912218686210116,-1688.2537250373805
26,0.1999975941057422,1.9116268163772074,-1772.1906844579123
27,0.20496032176499948,1.911203963371623,-1830.1176455063824
28,0.20826375359697522,1.910916272353106,-1869.4452388626742
29,0.21156718542895095,1.9106235907591014,-1909.2699347698087
30,0.21413562218801463,1.910392569880536,-1940.7106695457792
31,0.2167040589470783,1.9101585139948514,-1972.5984213683626
32,0.2203002056227454,1.9098256903938076,-2017.5273074519687
33,0.22445980072596824,1.9094332499453996,-2068.9569228586774
34,0.23046633007956183,1.9088523532760373,-2142.8560501102156
35,0.23536488920925747,1.9083661172061284,-2202.3247798432685
36,0.23864562532088257,1.908034161897404,-2242.368926219526
37,0.24192636143250767,1.9076971277606019,-2282.452704144755
38,0.24556207809920103,1.907317672185971,-2325.987185337052
39,0.24684791844556445,1.9071819678970425,-2341.0313099728623
40,0.24684884461369408,1.9071818698681804,-2331.8500533329575
41,0.24684968713492636,1.9071817806924427,-2322.7091056805734
42,0.24685248013664746,1.9071814850678164,-2292.7694048625553
43,0.24685969622972134,1.9071807212649141,-2217.967748823315
44,0.24687474455336553,1.907179128362985,-2073.0027795098763
45,0.24690056361127655,1.9071763951013594,-1854.435319714979
46,0.24693762905629693,1.9071724707180742,-1594.1811365320846
47,0.24698356077894665,1.9071676066914707,-1337.453656064572
48,0.24703484077129403,1.9071621751133756,-1112.9674971786494
49,0.24708836384669525,1.9071565046128456,-928.6782136345709
50,0.2471419612718503,1.9071508248688218,-781.1908679825927
51,0.2471943345974637,1.907145273522152,-663.6048865788944
52,0.24724481964061826,1.9071399210892,-569.1414060796425
53,0.24729317177590115,1.9071347936498722,-492.2397422345293
54,0.2473393814865273,1.9071298923609317,-428.67382867733954
55,0.24738356595877345,1.9071252049304868,-375.31529338938543
56,0.2473886289446469,1.907124667750436,-374.793331012306
57,0.24739319739147153,1.907124183030234,-374.79765186868667
58,0.24740930524749458,1.9071224738792285,-374.81838266136305
59,0.24745322293661076,1.9071178132917128,-374.6837373160556
60,0.24752932240510303,1.9071097353680815,-374.41576772385963
61,0.24793941162541333,1.907066157103709,-372.9740489281578
62,0.25137574283099573,1.9066978422502692,-361.00469222079147
63,0.25916103103081833,1.9058424774689775,-334.5773124814856
64,0.2691521490379558,1.9047019235841025,-302.0179400737272
65,0.2820553510634795,1.9031569366163337,-262.2433271305201
66,0.2983046969855938,1.9010943085917942,-215.94243273119218
67,0.3198989381614917,1.8981480366953158,-161.1231798812648
68,0.35892053026426196,1.8922159864813763,-81.7770610170492
69,0.40616342873543715,1.8839560308380774,-20.553132577309654
70,0.46149156659208723,1.8727393195866853,-0.0
71,0.5292618447609789,1.8567033718712809,-0.0
72,0.6239638006988611,1.8301715570593233,-0.0
73,0.6950336767816145,1.8073759642205007,-0.0
74,0.729672330401321,1.79548291622115,-0.0
75,0.7560373337533824,1.7861271839184676,-0.0
76,0.7824023371054439,1.7765338928444945,-0.0
77,0.8122487059406404,1.7654156419730298,-0.0
78,0.8448065375411747,1.7530109416089974,-0.0
79,0.8833597136580098,1.7380016233066844,-0.0
80,0.9077653689381969,1.7283459335334135,-0.0
81,0.932171024218384,1.718586415412398,-0.0
82,0.9656873608177413,1.7050344791152836,-0.0
83,0.9856958586652275,1.696870439040177,-0.0
84,1.0057043565127137,1.6886557365373365,-0.0
85,1.047232627696701,1.6714542770817742,-0.0
86,1.0957385644505622,1.651112015271064,-0.0
87,1.1566557137580806,1.625164877189181,-0.0
88,1.2523541273257304,1.5833605606980081,-0.0
89,1.3514157809286187,1.538619021332212,-0.0
90,1.4326395403004373,1.5012593589621444,-0.0
91,1.5004541711739487,1.4706357292260446,-0.0
92,1.554998420647738,1.4475161743699485,-0.0
93,1.6058126532053612,1.4283468843032892,-0.0
94,1.6476382632985576,1.4151489107144375,-0.0
95,1.6779915744972937,1.4074564413388015,-0.0
96,1.6779916420321257,1.4074564262102691,-0.0
97,1.6779917035433813,1.4074564124310909,-0.0
98,1.6779917840816092,1.4074563943896792,-0.0
99,1.6779918837659535,1.4074563720593538,-0.0
100,1.677992001637549,1.4074563456549218,-0.0
101,1.6779921359125431,1.4074563155759965,-0.0
102,1.6779922842656931,1.4074562823434675,-0.0
103,1.6779924440912166,1.4074562465410667,-0.0
104,1.6779926127145428,1.4074562087679325,-0.0
105,1.6779927875486909,1.4074561696035794,-0.0
106,1.6779929661980382,1.4074561295846528,-0.0
107,1.6779931465192437,1.4074560891912817,-0.0
108,1.6779933266496116,1.4074560488407253,-0.0
109,1.6779935050122103,1.4074560088862271,-0.0
110,1.6779936803057085,1.4074559696192923,-0.0
111,1.6779938514843995,1.4074559312741621,-0.0
112,1.677994017733899,1.4074558940332595,-0.0
113,1.67799417844428,1.4074558580332064,-0.0
114,1.6779943331830718,1.4074558233708732,-0.0
115,1.6779944816699657,1.4074557901090445,-0.0
116,1.677994623752858,1.407455758281787,-0.0
117,1.6779947593865752,1.4074557278992141,-0.0
118,1.6779948886135756,1.4074556989518099,-0.0
119,1.6779950115471847,1.4074556714141837,-0.0
120,1.677995128356999,1.4074556452483407,-0.0
121,1.677995239256323,1.4074556204064954,-0.0
122,1.6779953444913889,1.4074555968334874,-0.0
123,1.677995444332315,1.4074555744688055,-0.0
124,1.6779955390655632,1.4074555532482782,-0.0
125,1.6779956289876483,1.4074555331054823,-0.0
126,1.6779957144000108,1.407455513972892,-0.0
127,1.677995795604935,1.4074554957827923,-0.0
128,1.6779958729022906,1.40745547846801,-0.0
129,1.6779959465870344,1.4074554619624722,-0.0
130,1.6779960169474069,1.4074554462016107,-0.0
131,1.677996084263629,1.4074554311226541,-0.0
132,1.677996148807112,1.407455416664805,-0.0
133,1.6779962108400455,1.4074554027693311,-0.0
134,1.677996270615367,1.4074553893795732,-0.0
135,1.677996328377004,1.4074553764408904,-0.0
136,1.6779963843603671,1.4074553639005496,-0.0
137,1.6779964387930701,1.4074553517075648,-0.0
138,1.6779964918958428,1.4074553398124916,-0.0
139,1.6779965438835887,1.4074553281671909,-0.0
140,1.6779965949666265,1.407455316724551,-0.0
141,1.6779966453520587,1.4074553054381804,-0.0
142,1.6779966952452605,1.4074552942620748,-0.0
143,1.6779967448515796,1.4074552831502363,-0.0
144,1.6779967943781695,1.4074552720562619,-0.0
145,1.6779968440359456,1.4074552609329067,-0.0
146,1.6779968940418513,1.4074552497315755,-0.0
147,1.6779969446212704,1.4074552384017824,-0.0
148,1.6779969960107834,1.4074552268905336,-0.0
149,1.6779970484612001,1.4074552151416477,-0.0
150,1.67799710224105,1.407455203094975,-0.0
151,1.6779971576404988,1.4074551906855184,-0.0
152,1.677997214975876,1.4074551778424211,-0.0
153,1.6779972745948604,1.4074551644878042,-0.0
154,1.677997336882505,1.4074551505354165,-0.0
155,1.6779974022682587,1.407455135889063,-0.0
156,1.6779974712341696,1.4074551204407668,-0.0
157,1.6779975443245425,1.4074551040686056,-0.0
158,1.6779976221573678,1.4074550866341524,-0.0
159,1.6779977054378459,1.4074550679794455,-0.0
160,1.6779977949744826,1.4074550479233836,-0.0
161,1.6779978916983174,1.4074550262574193,-0.0
162,1.677997996685951,1.4074550027404003,-0.0
163,1.6779981111872102,1.4074549770923737,-0.0
164,1.6779982366584996,1.4074549489871153,-0.0
165,1.6779983748031022,1.407454918043103,-0.0
166,1.6779985276200524,1.4074548838125702,-0.0
167,1.6779986974635168,1.4074548457682052,-0.0
168,1.6779988871152038,1.407454803286934,-0.0
169,1.6779990998728425,1.4074547556301025,-0.0
170,1.6779993396586184,1.4074547019191896,-0.0
171,1.6779996111524336,1.4074546411059619,-0.0
172,1.677999919956071,1.407454571935706,-0.0
173,1.6780002727959822,1.4074544929018116,-0.0
174,1.6780006777744185,1.40745440218953,-0.0
175,1.6780011446812129,1.40745429760615,-0.0
176,1.6780016853818507,1.4074541764940915,-0.0
177,1.6780023143016427,1.4074540356224838,-0.0
178,1.6780030490311997,1.4074538710515836,-0.0
179,1.678003911085366,1.4074536779628404,-0.0
180,1.6780049268565538,1.4074534504454452,-0.0
181,1.6780061288146388,1.4074531812276962,-0.0
182,1.6780075570201118,1.4074528613382602,-0.0
183,1.6780092610352857,1.407452479678373,-0.0
184,1.678011302341768,1.4074520224807896,-0.0
185,1.6780137574014868,1.407451472624813,-0.0
186,1.6780167215351451,1.407450808768578,-0.0
187,1.678020313837299,1.4074500042496816,-0.0
188,1.6780246834010015,1.4074490256933263,-0.0
189,1.6780300171910596,1.4074478312524927,-0.0
190,1.6780365499774448,1.4074463683886937,-0.0
191,1.678044576818359,1.407444571084805,-0.0
192,1.6780544686563619,1.407442356365557,-0.0
193,1.6780666916414078,1.4074396199909665,-0.0
194,1.6780818307894485,1.4074362311906579,-0.0
195,1.6781006184693816,1.407432026335259,-0.0
196,1.6781239679003805,1.4074268015139788,-0.0
197,1.6781530112082486,1.40742030413403,-0.0
198,1.678189140478041,1.4074122239127322,-0.0
199,1.6782340484477056,1.4074021840421367,-0.0
200,1.6782897628882663,1.4073897338957857,-0.0
201,1.6783586653366085,1.4073743454086323,-0.0
202,1.678443481073917,1.4073554161014599,-0.0
203,1.6785472241846473,1.4073322823823724,-0.0
204,1.6786730810818296,1.4073042468039667,-0.0
205,1.6788242205799855,1.407270621809499,-0.0
206,1.6790035306856346,1.4072307896677738,-0.0
207,1.679213301943973,1.407184273768323,-0.0
208,1.6794549006247823,1.4071308111469851,-0.0
209,1.679728493879443,1.4070704119945072,-0.0
210,1.680032892845951,1.4070033913405562,-0.0
211,1.6803655619482463,1.406930362517452,-0.0
212,1.680722805746808,1.4068521906820175,-0.0
213,1.6811001015521692,1.406769914517663,-0.0
214,1.6814925127438365,1.4066846515244626,-0.0
215,1.6818951055229816,1.406597504583212,-0.0
216,1.682303302016763,1.4065094846431876,-0.0
217,1.6827131281244072,1.4064214582497145,-0.0
218,1.6831213444337507,1.4063341217531709,-0.0
219,1.6835254734958813,1.406247998541115,-0.0
220,1.6839237510190024,1.406163452681101,-0.0
221,1.6843150319206919,1.4060807118728043,-0.0
222,1.6846986777692963,1.405999893798473,-0.0
223,1.6850744444212196,1.4059210318026838,-0.0
224,1.6854423808429275,1.4058440976171998,-0.0
225,1.6858027440550414,1.405769020189199,-0.0
226,1.6861559310811043,1.405695700544341,-0.0
227,1.686502426565273,1.4056240230753216,-0.0
228,1.6868427637518515,1.405553863831754,-0.0
229,1.6871774962571042,1.4054850964207,-0.0
230,1.6875071782705926,1.405417596064341,-0.0
231,1.6878323511376687,1.4053512422794168,-0.0
232,1.6881535346645304,1.4052859205493413,-0.0
233,1.6884712218664741,1.405221523271916,-0.0
234,1.6887858761502477,1.4051579502027518,-0.0
235,1.689097930206582,1.4050951085509598,-0.0
236,1.6894077860596615,1.4050329128451833,-0.0
237,1.689715815874728,1.404971284654089,-0.0
238,1.690022363252161,1.4049101522179799,-0.0
239,1.6903277447955627,1.4048494500350663,-0.0
240,1.6906322518202532,1.4047891184293066,-0.0
241,1.6909361521112167,1.4047291031177236,-0.0
242,1.6912396916582668,1.4046693547910547,-0.0
243,1.6915430963314795,1.4046098287144027,-0.0
244,1.691846573482403,1.40455048435006,-0.0
245,1.6921503134439957,1.4044912850071267,-0.0
246,1.6924544909292554,1.404432197517218,-0.0
247,1.6927592663299387,1.4043731919353406,-0.0
248,1.6930647869097821,1.4043142412664027,-0.0
249,1.6933711879096143,1.4042553212134274,-0.0
250,1.6936785935586318,1.4041964099480704,-0.0
251,1.6939871179953698,1.4041374879022772,-0.0
252,1.6942968661258577,1.4040785375753961,-0.0
253,1.6946079343962677,1.4040195433607237,-0.0
254,1.69492041151006,1.403960491385406,-0.0
255,1.6952343790786888,1.4039013693654876,-0.0
256,1.695549912217702,1.4038421664735776,-0.0
257,1.6958670800968036,1.4037828732172835,-0.0
258,1.696185946444539,1.4037234813280801,-0.0
259,1.6965065700043593,1.4036639836610125,-0.0
260,1.6968290049570476,1.4036043741022506,-0.0
261,1.697153301309594,1.4035446474843318,-0.0
262,1.6974795052485663,1.4034847995093087,-0.0
263,1.6978076594635771,1.403424826678621,-0.0
264,1.6981378034484558,1.403364726228184,-0.0
265,1.6984461554069687,1.4033088069004098,-0.0
266,1.6990774948795857,1.4031949599081088,-0.0
267,1.7002930636366298,1.402978210475765,-0.0
268,1.702474830602331,1.4025972973339387,-0.0
269,1.7061668426751826,1.4019766376823102,-0.0
270,1.7122254452669916,1.4010240561609086,-0.0
271,1.7226334481083596,1.3995822898129813,-0.0
272,1.7413569966161841,1.3976245916888335,-0.0
273,1.775252153966652,1.3962278057866633,-0.0
274,1.806778840230871,1.397450761275949,-0.0
275,1.8376968981884658,1.4009649298635787,-0.0
276,1.8724438506262866,1.4074830682568809,-0.0
277,1.909552665830069,1.417125169769365,-0.0
278,1.9497859250249943,1.4301973508645507,-0.0
279,1.9911606251556082,1.4458455613758265,-0.0
280,2.0387588699539907,1.4657781715977638,-0.0
281,2.0862506812589636,1.4869149120871215,-0.0
282,2.14138970000952,1.5121650190145817,-0.0
283,2.1913418712872232,1.5351531127652494,-0.0
284,2.2366335015933902,1.5558250106694664,-0.0
285,2.3021472608730575,1.5852180274483914,-0.0
286,2.3668285782359315,1.6135806175391787,-0.0
287,2.4283428866096597,1.6399945031572636,-0.0
288,2.489482121137992,1.6657772149741585,-0.0
289,2.5502627149030537,1.6909805808000373,-0.0
290,2.608776709740816,1.7148147721956188,-0.0
291,2.671503918481133,1.7397881131114523,-0.0
292,2.8066641798052117,1.7905530468005029,-0.0
293,2.8860417748494016,1.8175214759023246,-0.0
294,2.9620535391309986,1.8407180297579697,-0.0
295,3.0484193342682695,1.8634821918237874,-0.0
296,3.133605116721495,1.8819471765600948,-0.0
297,3.2117895244002623,1.8954150347206884,-0.0
298,3.29767496975096,1.9065607804571827,-0.0
299,3.3885779879039384,1.914515829265052,-0.0
300,3.4794810060569166,1.9188486882998321,-0.0
301,3.5256375266412503,1.9197395001667528,-0.0
302,3.571794047225584,1.9197692833952609,-0.0
303,3.637627809337857,1.9183201121204883,-0.0
304,3.7156860594960692,1.9142695096574345,-0.0
305,3.8037107261726066,1.906478925877735,-0.0
306,3.9003630858249956,1.8936348689151496,-0.0
307,4.00712793151231,1.8737534350624823,-0.0
308,4.121925068187991,1.8454163413404876,-0.0
309,4.229786303317654,1.8125606993457277,-0.0
310,4.248104798963609,1.8064478631947727,-0.0
311,4.266423294609563,1.8001969057481964,-0.0
312,4.26691421807763,1.8000275497598224,-0.0
313,4.267365546155525,1.7998717702837297,-0.0
314,4.267795817816797,1.7997231847726913,-0.0
315,4.268209518369462,1.79958025389252,-0.0
316,4.2686098018262015,1.7994418952847389,-0.0
317,4.268999024849465,1.7993073001556177,-0.0
318,4.269379022969597,1.7991758384376006,-0.0
319,4.269751269083997,1.799047004392585,-0.0
320,4.270116971603655,1.798920382941736,-0.0
321,4.270477138925372,1.7987956275556898,-0.0
322,4.2708326238283165,1.7986724450342335,-0.0
323,4.271184155241096,1.7985505846185699,-0.0
324,4.271532361696524,1.798429829954205,-0.0
325,4.2718777891265995,1.7983099929941235,-0.0
326,4.272220914654881,1.798190909273793,-0.0
327,4.2725621574853525,1.798072434181059,-0.0
328,4.272901887634758,1.7979544399648373,-0.0
329,4.273240433035216,1.7978368133020086,-0.0
330,4.273578085363524,1.7977194533004657,-0.0
331,4.273915104891938,1.7976022698372143,-0.0
332,4.274251724541484,1.7974851821696238,-0.0
333,4.2745881533077235,1.7973681177615486,-0.0
334,4.274924579166685,1.7972510112874978,-0.0
335,4.275261171565263,1.7971338037790712,-0.0
336,4.275598083549233,1.7970164418955785,-0.0
337,4.275935453612776,1.7968988772899708,-0.0
338,4.276273407297449,1.7967810660606303,-0.0
339,4.276612058581195,1.7966629682751036,-0.0
340,4.276951511102084,1.796544547550401,-0.0
341,4.277291859222291,1.7964257706880913,-0.0
342,4.277633188969378,1.7963066073514127,-0.0
343,4.277975578869711,1.7961870297793299,-0.0
344,4.2783191006797185,1.7960670125356495,-0.0
345,4.278663820037813,1.7959465322853094,-0.0
346,4.279009797049702,1.7958255675934676,-0.0
347,4.279357086802393,1.7957040987490935,-0.0
348,4.279705739823662,1.795582107607258,-0.0
349,4.28005580250376,1.7954595774443003,-0.0
350,4.280407317458563,1.7953364928331894,-0.0
351,4.280760323866909,1.7952128395276565,-0.0
352,4.281114857768176,1.7950886043600163,-0.0
353,4.281470952337152,1.7949637751467276,-0.0
354,4.281828638121332,1.794838340606931,-0.0
355,4.282187943265592,1.7947122902852422,-0.0
356,4.282548893710065,1.7945856144837857,-0.0
357,4.282911513369487,1.794458304200591,-0.0
358,4.283275824297693,1.794330351073073,-0.0
359,4.283641846835023,1.7942017473273995,-0.0
360,4.28400959974322,1.7940724857321468,-0.0
361,4.2843791003291205,1.7939425595557994,-0.0
362,4.284750364553404,1.7938119625294149,-0.0
363,4.285123407135444,1.793680688810582,-0.0
364,4.285498241644829,1.793548732951996,-0.0
365,4.285874880586261,1.7934160898722986,-0.0
366,4.286253335473,1.7932827548308945,-0.0
367,4.286633616902408,1.7931487234019703,-0.0
368,4.28701573461718,1.7930139914535106,-0.0
369,4.287399697567786,1.7928785551258366,-0.0
370,4.287785513965642,1.792742410813377,-0.0
371,4.288173191331757,1.7926055551479905,-0.0
372,4.288562736542379,1.7924679849833194,-0.0
373,4.288954155874555,1.7923296973791347,-0.0
374,4.289347455040491,1.7921906895896111,-0.0
375,4.289742639225795,1.7920509590501994,-0.0
376,4.290139713122287,1.7919105033663973,-0.0
377,4.290529747508341,1.7917724822200087,-0.0
378,4.2913326808930625,1.791488175908158,-0.0
379,4.292851233650652,1.7909498453104495,-0.0
380,4.295494373978846,1.7900108770045042,-0.0
381,4.29977952828683,1.7884833255432753,-0.0
382,4.306377132464713,1.7861189159400985,-0.0
383,4.316340498935057,1.7825202244101948,-0.0
384,4.33245012123067,1.7766329008320274,-0.0
385,4.357051157517688,1.7674890873858942,-0.0
386,4.405406980635588,1.7490390788310441,-0.0
387,4.4688492490118525,1.7240524002497972,-0.0
388,4.5421478899656424,1.6943567898837397,-0.0
389,4.629789288247289,1.6579638284561233,-0.0
390,4.72669500965483,1.616659959012664,-0.0
391,4.814027939115352,1.5783055953267486,-0.0
392,4.901360868575874,1.5387892887547097,-0.0
393,5.0,1.4934575079389936,-0.0
