,time,theta,torque
0,0.0,1.9198621771937625,-135.0844310926892
1,0.000510950093004397,1.9198621771061255,-81.25761437727398
2,0.0010005571284778633,1.9198621768577042,-54.93844916106899
3,0.001648498715847331,1.9198621762815244,-35.9258109151807
4,0.0024640893620302474,1.9198621751555762,-23.263387754230873
5,0.00350133764930059,1.9198621730784864,-14.87058307283875
6,0.004818055763165647,1.9198621694013012,-9.406853596300587
7,0.005677429207068435,1.9198621663735829,-7.306543702647188
8,0.006536802650971223,1.9198621628500434,-5.982632258357458
9,0.007389063136621325,1.9198621588659859,-5.16617489075295
10,0.010020808519513171,1.9198621434854837,-3.67122129925651
11,0.012891010528800529,1.9198621214103595,-2.9117036512039607
12,0.016288706218191864,1.919862088129331,-2.5052263623841062
13,0.020110523905057805,1.91986204143185,-1.8771381723222984
14,0.023988253944161285,1.9198619840287239,-1.289984027894611
15,0.028243611130878154,1.9198619094176765,-1.0148090048675176
16,0.030792996199854074,1.919861858894742,-0.9292940188219635
17,0.031207764599754915,1.9198618502622837,-0.9185794957644943
18,0.031622532999655756,1.9198618415143274,-0.986895098947555
19,0.03203758710739511,1.9198618326447277,-1.1372518184264244
20,0.03459852884842844,1.9198617753596756,-1.738175221641159
21,0.03741144941222827,1.9198617073638515,-2.0062102193416735
22,0.04057371165892732,1.9198616245806654,-2.128935685687946
23,0.042339426147028694,1.919861575436012,-2.1630010685226377
24,0.04332811449971556,1.9198615470039564,-2.1763753961695276
25,0.04431680285240243,1.919861517915628,-2.0518153492743667
26,0.04525688042435609,1.9198614896488175,-1.8245916743079018
27,0.04973074871645939,1.9198613469950851,-1.216313975170623
28,0.05401967178951513,1.9198611976223334,-0.9815539479706888
29,0.055241798092589646,1.9198611527977119,-0.9423641051022132
30,0.05646392439566416,1.9198611069703215,-0.9105363728930134
31,0.057348278185127284,1.9198610731834032,-1.2095507046683631
32,0.05819451693264469,1.9198610403610608,-1.4523025607881217
33,0.060845095396548525,1.9198609344439472,-1.8763253780447842
34,0.06347262882648294,1.9198608247922049,-2.055783511707467
35,0.06698743644236772,1.9198606708655916,-2.1555392696283606
36,0.07130476682468084,1.9198604704423954,-1.7038916863208833
37,0.07563934209287845,1.9198602566293264,-1.1807646681420427
38,0.08007056267666417,1.919860025009527,-0.9609422141440617
39,0.08096973867713336,1.9198599764006372,-0.934135172754295
40,0.08143904754552532,1.9198599508144958,-0.9216766202491742
41,0.08190835641391728,1.9198599250804793,-0.9985943751903902
42,0.08236762702214748,1.9198598997537348,-1.1629903258391745
43,0.08537715514971515,1.9198597302870595,-1.8066676849117551
44,0.08811353743402697,1.9198595709230521,-2.030610138118543
45,0.09142983649325309,1.9198593710469793,-2.142089625280247
46,0.09559410575785013,1.9198591096056026,-1.7112724981668812
47,0.09967735039481743,1.9198588419458118,-1.2020371836289576
48,0.1041114328844202,1.919858538609974,-0.9707235180844793
49,0.10672749960463078,1.9198583534530698,-0.9001898036058478
50,0.10752402409081005,1.9198582961650728,-1.171787708206069
51,0.10832054857698932,1.9198582384510967,-1.4107427745701133
52,0.11091841923050041,1.9198580472561928,-1.8539777633456487
53,0.11349503987085509,1.9198578531493258,-2.043379018772857
54,0.11694159159663743,1.9198575865381131,-2.1495820553151614
55,0.12118051220524677,1.9198572476956441,-1.708043410217454
56,0.1253845710258362,1.9198568997238388,-1.1918464223679353
57,0.12981646051860218,1.9198565200453865,-0.9660685859453908
58,0.13094166357171802,1.9198564215504406,-0.9324532400467489
59,0.13157465469064777,1.919856365767769,-0.9161660920563649
60,0.13220764580957753,1.9198563097160681,-1.0200955959494724
61,0.1327946899940752,1.9198562574925466,-1.2243018919947326
62,0.13543796961626295,1.9198560194794876,-1.7847081969613896
63,0.13807823399947586,1.9198557770546592,-2.016001706656346
64,0.1413422430659923,1.9198554708887101,-2.1351635989477376
65,0.14312691947573492,1.919855300460073,-2.1671753722798783
66,0.14402139702993955,1.9198552142369132,-2.1785732949593477
67,0.14491587458414418,1.9198551274765339,-2.0649804635819176
68,0.1457786154077239,1.9198550432855104,-1.8521729473440018
69,0.14980213888012195,1.9198546440474529,-1.265792848233955
70,0.15407771487855573,1.9198542078864638,-1.0035264673061475
71,0.15664433252357685,1.9198539401642545,-0.9217130488517719
72,0.15735908889670297,1.9198538648210657,-1.0381038933423252
73,0.15800790560288944,1.9198537961316182,-1.2594019416325144
74,0.16080616329049063,1.9198534966450143,-1.8166834864805619
75,0.16341025401488699,1.9198532132161639,-2.0280848102721003
76,0.16675501785324423,1.9198528424922472,-2.141627997010078
77,0.1709040727644567,1.9198523721841785,-1.7122576353657197
78,0.17496555345262488,1.9198519006069907,-1.2040314467576227
79,0.17939957823431715,1.91985137312661,-0.9716029411215875
80,0.18201396868372102,1.9198510559266395,-0.9008701665372242
81,0.18281041089355554,1.919850958383462,-1.1723889436806954
82,0.18360685310339006,1.9198508604143396,-1.4112468493548105
83,0.18620615406905353,1.9198505377148383,-1.854414174891874
84,0.1887826649780894,1.9198502133672655,-2.0435730760454645
85,0.19223188675631592,1.9198497721789707,-2.1496111647628475
86,0.1964712354074009,1.9198492189821197,-1.7078251119237928
87,0.2006762259421743,1.919848658346441,-1.191560703075947
88,0.20510847543823918,1.9198480545573873,-0.965998801190282
89,0.20623376775445604,1.9198478991631263,-0.9324443385983205
90,0.20686679775227707,1.9198478113727941,-0.9161890784374753
91,0.2074998277500981,1.9198477233133602,-1.0201564071035825
92,0.20808690910614444,1.9198476414052303,-1.2244040043136113
93,0.21086427315797945,1.91984725077679,-1.801408210882033
94,0.21351310009669316,1.919846873400693,-2.0237572810925117
95,0.21681872908646868,1.9198463958414842,-2.139060269479731
96,0.22094257778865029,1.9198457897878107,-1.7131955898188054
97,0.22496492136559165,1.9198451876492584,-1.207236091596717
98,0.22940010653131565,1.9198445111135323,-0.9730332922863508
99,0.23201191081484202,1.9198441065330223,-0.9020843063209303
100,0.23272972844725134,1.919843994537212,-1.0214859849453957
101,0.23338051004333007,1.9198438927014685,-1.2458673435565846
102,0.23619770361357956,1.91984344858013,-1.8138218948071572
103,0.23881692340510352,1.91984303088731,-2.0275839790599712
104,0.24215262518895672,1.9198424922653332,-2.1412258408768525
105,0.24629871070358958,1.919841812372689,-1.7123389352456757
106,0.2503551166039682,1.9198411360130823,-1.2044258124320646
107,0.2547892445297329,1.9198403840301679,-0.9717340329146137
108,0.25740325655740764,1.9198399345334392,-0.9009433332992174
109,0.2581996761224548,1.9198397966716954,-1.1724405158067164
110,0.258996095687502,1.9198396583839497,-1.4112759104579515
111,0.26159337943123306,1.9198392044398997,-1.8542014846483448
112,0.26417019963419847,1.91983874959504,-2.043465873614417
113,0.2676171914034493,1.9198381341797417,-2.149495725883991
114,0.27185692782526455,1.919837366285878,-1.7076958142418002
115,0.2760627575764183,1.9198365926043424,-1.1913956204439606
116,0.28049510034454045,1.919835764396598,-0.9658979504042803
117,0.28162042450815156,1.9198355520231847,-0.9323555932634325
118,0.2822120448994487,1.9198354400302715,-0.9171182631880439
119,0.2825924115421243,1.9198353679032343,-0.9080760638864638
120,0.2829727781847999,1.9198352956790197,-0.971495723168502
121,0.28335932301323025,1.9198352221821298,-1.1131888231074432
122,0.2855708123881837,1.9198347997642171,-1.6726122302030917
123,0.2885258438936378,1.9198342301944928,-1.9884505217529616
124,0.2915608666065813,1.919833639101152,-2.118363213761207
125,0.2934159437691232,1.9198332747643674,-2.1578287305236112
126,0.29527102093166513,1.9198329081160483,-2.182426195160829
127,0.29705525456775894,1.9198325532888378,-1.7874660701355296
128,0.29883948820385275,1.9198321963232454,-1.4844612643397483
129,0.3035294698885297,1.9198312478164816,-1.073295391456267
130,0.30545153722356105,1.9198308548271916,-0.9881101026283347
131,0.3073736045585924,1.9198304593563023,-0.92775806364169
132,0.30809450351879314,1.9198303103893346,-1.0443569302554585
133,0.30874801822551956,1.9198301750450106,-1.2661889337991168
134,0.3114885381816479,1.9198296043532752,-1.8126884167802755
135,0.3140860127988715,1.91982905879264,-2.02593484730339
136,0.31741949858447904,1.9198283520033672,-2.1404510301989568
137,0.3215566191426653,1.9198274644407949,-1.7125946964857321
138,0.3255997126811455,1.9198265859416068,-1.2053852645545156
139,0.3300343883989578,1.919825609729754,-0.9721641625957257
140,0.3326476326235249,1.9198250282858838,-0.901367831398942
141,0.33336552610253795,1.9198248677521343,-1.0208164875363703
142,0.3340163448342034,1.9198247219182778,-1.245250040354642
143,0.3367275297662866,1.9198241113409018,-1.8010756363555935
144,0.3393484411264785,1.9198235163995148,-2.021990340095182
145,0.3426528367098308,1.9198227597317234,-2.1383712371564507
146,0.34676775007028215,1.9198218072095536,-1.7138932764366868
147,0.3507764436975683,1.9198208683360303,-1.2087260624757654
148,0.35521100921551685,1.9198198171416558,-0.9735242841215636
149,0.35782140822142505,1.9198191921802166,-0.90219708598663
150,0.3585301354976888,1.9198190217120117,-1.0200277417318155
151,0.35917411333173355,1.9198188665251752,-1.2423904908781953
152,0.3619432221156559,1.9198181960458014,-1.8067957211706713
153,0.36456730408582055,1.9198175559272634,-2.024653128093356
154,0.367887494756546,1.9198167393697882,-2.1397546870700803
155,0.3720155845902717,1.9198157137906757,-1.7133868080196812
156,0.37604442203321353,1.9198147018293759,-1.2070230831953257
157,0.3804783692799545,1.9198135755064711,-0.9727341983292377
158,0.3830900798001764,1.9198129058907811,-0.9015203040096331
159,0.3838863785327732,1.9198127008162382,-1.1728625232391565
160,0.38468267726537,1.9198124953156246,-1.4115388259139754
161,0.3872807618215012,1.9198118218656999,-1.854310468083499
162,0.3898574201746786,1.9198111494899353,-2.0434457057149435
163,0.39330522845503324,1.9198102428100072,-2.1494464759779817
164,0.39754570508967174,1.9198091167260882,-1.7075787312825335
165,0.4017523155905084,1.9198079876965888,-1.1912330291867101
166,0.4061846239362385,1.9198067852256882,-0.9657279303514444
167,0.4073099403602498,1.9198064778296031,-0.9321765739599216
168,0.4079429763726337,1.9198063045328626,-0.915922499359062
169,0.4085760123850176,1.9198061309668235,-1.0198936650640358
170,0.4091630795112568,1.9198059697638739,-1.224142622763802
171,0.41194259402014205,1.9198052033919037,-1.8014539687494053
172,0.4145914463180822,1.919804468214814,-2.023680211894958
173,0.41789657267319835,1.9198035442794366,-2.138924048795963
174,0.42202153010559307,1.919802380864751,-1.7129591692085009
175,0.4260453758354092,1.9198012349496747,-1.2069176293567332
176,0.4304805806916629,1.9197999592800523,-0.9727637635417377
177,0.43309248185646654,1.919799201850317,-0.9018103297630482
178,0.43381026741309336,1.9197989928952919,-1.0212065801909722
179,0.4344610122728472,1.9197988031572557,-1.2455832153286417
180,0.43719115707329276,1.9197980040255835,-1.8035032550336019
181,0.4398119630358735,1.919797232185368,-2.023024879956721
182,0.4431222969156934,1.9197962506776018,-2.1388038823674296
183,0.4472442452358499,1.9197950182321832,-1.7132876994166493
184,0.45126357637169956,1.9197938054717916,-1.20749661276253
185,0.4556983889009294,1.9197924547469811,-0.972953408879855
186,0.4583097254328308,1.919791653220079,-0.9018282386126737
187,0.4590274685309235,1.9197914321120544,-1.0211753571186164
188,0.45967818870650395,1.9197912313518342,-1.2455071934087893
189,0.46239059623130113,1.9197903914538241,-1.80125092353657
190,0.4650111097032866,1.9197895753138798,-2.02197843236798
191,0.4683159894025875,1.9197885394512249,-2.138298663540795
192,0.4724290081339553,1.9197872400354108,-1.7139368040420169
193,0.47643500877922595,1.9197859634974568,-1.2088676720921394
194,0.4808695285460472,1.9197845378281337,-0.9734943982362146
195,0.48347966994103897,1.9197836925039997,-0.9021261049672141
196,0.4841883639745404,1.9197834621947312,-1.0199433842621104
197,0.48483231110180586,1.919783252633933,-1.2422923223646793
198,0.487729163047146,1.9197823064586779,-1.8211023602248946
199,0.49034960041276826,1.919781445706601,-2.030697494514279
200,0.493706187045043,1.9197803364028254,-2.1428006284363317
201,0.49787130796831586,1.9197789493586799,-1.7114309020399654
202,0.5019572764408347,1.919777577340106,-1.2018195389985384
203,0.5063904333596266,1.9197760760438014,-0.9703153720910525
204,0.5076165015121368,1.9197756585010848,-0.9332745812384465
205,0.5088425696646469,1.9197752399476402,-0.9031515984166292
206,0.5097280935158657,1.9197749370201167,-1.20370424451192
207,0.5105767403305197,1.9197746462130378,-1.4484034529724505
208,0.5132219016168446,1.9197737366846883,-1.8740043985518844
209,0.5158440542780348,1.9197728304243598,-2.0543133341232793
210,0.5193524460381742,1.9197716106337088,-2.154655296767882
211,0.5236619953082653,1.919770100970816,-1.703957922825319
212,0.5279831800546801,1.919768574692823,-1.1814870764743735
213,0.5324145320461824,1.9197669964622397,-0.9610211108475796
214,0.5333135143008136,1.9197666746776103,-0.9341545894235804
215,0.5337827368880496,1.9197665065066931,-0.9216686510912034
216,0.5342519594752855,1.9197663381877184,-0.9985473797036823
217,0.53471116144125,1.91976617331998,-1.1629007816522252
218,0.5372200382305963,1.9197652700516374,-1.7413126995744295
219,0.539988245895341,1.919764268504814,-2.004696883440302
220,0.5431571497854745,1.9197631156585306,-2.128226218291139
221,0.5449209870362745,1.919762471049476,-2.162344932856898
222,0.5459088116626574,1.9197621091267139,-2.1757413166977058
223,0.5468966362890403,1.9197617465477077,-2.051295446779925
224,0.5478359658328955,1.9197614011600088,-1.8242035626199689
225,0.5522951020206659,1.9197597534587656,-1.2169715569948405
226,0.5565846350160768,1.9197581558082344,-0.9815880599850694
227,0.5591884640306564,1.9197571799676694,-0.9067878256174806
228,0.5599841484193907,1.9197568808583043,-1.177033528363698
229,0.560779832808125,1.919756581323119,-1.4144835277302954
230,0.5633834483932438,1.9197555982163401,-1.855836630331157
231,0.5659639312090806,1.9197546193455144,-2.044175523011846
232,0.5694158710506565,1.9197533028963487,-2.1497737321409076
233,0.5736603545653916,1.9197516732123288,-1.7074735453902272
234,0.5778737111025778,1.9197500434945405,-1.1906973088065136
235,0.5823053798371698,1.9197483164486007,-0.9652038588705818
236,0.5834307113373448,1.9197478757973858,-0.9315933474865162
237,0.5839934350575791,1.919747655129585,-0.9170323008948875
238,0.5845561587778133,1.9197474342487721,-1.0094649428072648
239,0.5850891189443014,1.9197472248543654,-1.1972987190700877
240,0.5876444334293923,1.9197462182440677,-1.7620584582965029
241,0.5901997479144833,1.9197452072412635,-2.0008893670157497
242,0.5934139094906644,1.9197439293300749,-2.127740466227268
243,0.5951692508452624,1.9197432284937392,-2.1618882140949984
244,0.5961533092119867,1.9197428346925405,-2.1753261852709858
245,0.597137367578711,1.9197424402398777,-2.0514006314219775
246,0.5980735909901099,1.9197420643567735,-1.8249295502935128
247,0.6025092092721082,1.9197402754911985,-1.2190732407179885
248,0.6067986837315555,1.9197385329751961,-0.9824810731809507
249,0.609400804417022,1.9197374698815315,-0.9073985888163199
250,0.6101963877440713,1.9197371439374578,-1.17753486487131
251,0.6109919710711205,1.9197368175675285,-1.414865909394843
252,0.6135939266570472,1.9197357472006236,-1.8558401012684207
253,0.6161750542943016,1.9197346809011298,-2.044182970809564
254,0.6196276586892544,1.9197332475742395,-2.149715180250097
255,0.6238743008079007,1.9197314736078115,-1.7071448645077854
256,0.6280908287219351,1.9197297002153084,-1.1902310002038263
257,0.6325227860148098,1.9197278233213397,-0.9649931033606375
258,0.6336482397876259,1.9197273445974175,-0.931430661960798
259,0.6342110085423665,1.9197271048979838,-0.9168914567111967
260,0.634773777297107,1.9197268649854298,-1.0093536436037358
261,0.6353067578949118,1.9197266375752924,-1.1972161075943628
262,0.6379218904603863,1.9197255189904259,-1.7700816337193652
263,0.6405370230258608,1.9197243958033683,-2.0079511917682837
264,0.6437698496025126,1.9197230009583999,-2.130939141440733
265,0.645538592493365,1.9197222348346306,-2.164061234646805
266,0.6465286277151436,1.9197218050858642,-2.177071789196854
267,0.6475186629369223,1.9197213746774593,-2.052068516053362
268,0.648459863030102,1.9197209648880236,-1.824437923092754
269,0.6529445830967872,1.919719004095899,-1.2149990544220672
270,0.657232906352181,1.9197171165116533,-0.9805985553375923
271,0.658455178086601,1.9197165762397126,-0.941441792807283
272,0.6596774498210211,1.9197160349622788,-0.9096376886333805
273,0.6605617841145162,1.9197156427119644,-1.2086780566518722
274,0.6614081973664212,1.9197152667887043,-1.4515448346946906
275,0.6640580760780156,1.9197140867622178,-1.8756161595591305
276,0.6666851877604337,1.9197129122087098,-2.055140558462426
277,0.6701985893881593,1.9197113341438288,-2.1549466364058096
278,0.6745157962214758,1.9197093836675154,-1.7033361554349054
279,0.678849948670438,1.9197074129154372,-1.1801773487318037
280,0.6832813055447728,1.91970538489061,-0.9602447493584438
281,0.6843606778526765,1.919704888910336,-0.928517939434508
282,0.6850659476158688,1.9197045644095474,-1.042477938052925
283,0.6857077976355227,1.9197042687977046,-1.260903381731317
284,0.6885805864469658,1.9197029423012997,-1.8251908825468206
285,0.6911809214164525,1.9197017368186677,-2.0313920445798765
286,0.6945478061513595,1.9197001692104225,-2.1429845197449353
287,0.698716730003968,1.9196982176007,-1.7106532797153904
288,0.7028091210930034,1.9196962904375927,-1.2005807916426166
289,0.7072431008172625,1.9196941896888267,-0.9697134394570647
290,0.709859798731596,1.9196929437281518,-0.8993219364909472
291,0.7106563134142724,1.919692563546351,-1.1709707745568
292,0.7114528280969488,1.9196921829373723,-1.410008213419557
293,0.7140514783342695,1.9196909382201715,-1.8534623763799867
294,0.7166270870465624,1.9196897000527942,-2.0427793731593
295,0.720074972602239,1.9196880355652455,-2.148964419083471
296,0.724313229845789,1.9196859785531453,-1.707368965148932
297,0.7285162654326343,1.9196839266899461,-1.1911549952550808
298,0.732948517856605,1.9196817500391428,-0.9653545977155542
299,0.7340736596742888,1.9196811953837414,-0.9317536984882303
300,0.734706603072687,1.9196808829901784,-0.9154744871872939
301,0.7353395464710851,1.919680570326818,-1.019408550102167
302,0.7359265258971889,1.9196802801277635,-1.223620071651564
303,0.7387537628208161,1.9196788791086306,-1.8065833452375637
304,0.7414018578508236,1.91967756197968,-2.0256264890047198
305,0.744720221130201,1.919675904800582,-2.139726925585357
306,0.7488579515995798,1.9196738280429853,-1.71199045660393
307,0.7529013558021702,1.919671787488303,-1.2047856229708342
308,0.7573361695152696,1.919669536741221,-0.9714931093697976
309,0.7599493256082949,1.919668204315067,-0.9006412952917522
310,0.7606580724171997,1.9196678421381208,-1.0185907583850022
311,0.7613020453507927,1.9196675127679015,-1.241082622136982
312,0.7641249528362059,1.9196660656506717,-1.81219768276809
313,0.7667492326974352,1.919664715541932,-2.0267536290426476
314,0.7700823623256071,1.9196629940642942,-2.1405439030344864
315,0.7742270060413166,1.9196608430207542,-1.7119909985681954
316,0.778281026877842,1.919658727814112,-1.2041733426326553
317,0.782714815263944,1.9196564017848685,-0.971085954513881
318,0.7853283185833059,1.9196550244989588,-0.9000796877300752
319,0.7861246276402314,1.9196546039386297,-1.17149458059989
320,0.7869209366971569,1.9196541829510672,-1.4102948279186678
321,0.7895284050088195,1.9196528014615435,-1.8543501994681004
322,0.7921049650607803,1.9196514318480435,-2.0431441116163906
323,0.7955546108822054,1.91964959112773,-2.1491051020971095
324,0.7997954921018839,1.9196473172185662,-1.7072250723865283
