,time,theta,torque
0,0.0,1.9198621771937625,-135.0844310926892
1,0.0005109469645746297,1.9198621771061264,-81.25785098340982
2,0.0010005541907064557,1.919862176857706,-54.93864114357139
3,0.0016485210481917737,1.9198621762814996,-35.92558751699491
4,0.002464184748070336,1.9198621751554181,-23.262956358380897
5,0.003501663265525881,1.9198621730777206,-14.870073810453112
6,0.004819001431759207,1.9198621693982416,-9.406740740684734
7,0.006485873414456777,1.9198621630726806,-5.913018040409015
8,0.008578737456114635,1.9198621524891641,-3.7255604758994343
9,0.011175940157227442,1.9198621352662402,-2.3921840164185295
10,0.014352709134183773,1.919862108042699,-1.608792960303954
11,0.015125987812626791,1.9198621003906893,-1.4899907684357294
12,0.01589926649106981,1.9198620923372276,-1.519908771895683
13,0.016632735891993804,1.9198620843273841,-1.663886885007637
14,0.019363805432327588,1.9198620513265579,-1.9731595875014751
15,0.022369428225871277,1.9198620092201797,-2.113140551936464
16,0.026234171922578285,1.9198619461650182,-2.1803590257527685
17,0.031021446843743316,1.919861854154351,-2.2051466294870115
18,0.03700532916643812,1.9198617175089827,-2.2126924993816783
19,0.044729614431148756,1.9198615055760306,-2.217004381256232
20,0.04855349964079018,1.919861385835629,-1.7685103202671912
21,0.05224926723260619,1.9198612607779864,-1.256857887206761
22,0.05662951019121672,1.9198611006840354,-0.9941582672361292
23,0.06184540403558491,1.9198608932456656,-0.8711393096691197
24,0.06806036461370032,1.9198606222256573,-0.8200540622650708
25,0.07557945211817686,1.9198602596694812,-0.7981774195647292
26,0.07697476996699161,1.9198601882143784,-0.7954806768055757
27,0.07837008781580636,1.9198601154521358,-0.7929773899326122
28,0.07913940939738166,1.9198600747749548,-1.0703657627492684
29,0.07990873097895697,1.9198600337004061,-1.3228770214316095
30,0.0824845094575413,1.9198598932855784,-1.8174295220537666
31,0.0850377023983712,1.919859749705925,-2.02753205587649
32,0.08837702548447796,1.9198595553124402,-2.141885784376686
33,0.09252073704406986,1.9198593036835205,-2.1912389806357586
34,0.09767867081542372,1.919858974359442,-2.2085671101214954
35,0.10415450321390209,1.9198585355987952,-2.2146664086332466
36,0.11261925352168783,1.9198579196257826,-1.4199604176466583
37,0.11740122580070464,1.9198575503799418,-1.0409138346152975
38,0.12218319807972144,1.919857165780522,-0.8954653312479807
39,0.12815345180229665,1.919856664060634,-0.8294848625026573
40,0.13526085782170216,1.9198560355740857,-0.8033894988048375
41,0.1385859769657322,1.919855729897907,-0.7967313693540257
42,0.1399492577464632,1.919855602426538,-0.794353913607122
43,0.1413125385271942,1.9198554737072664,-0.7921039555375374
44,0.14208118492455607,1.9198554005824835,-1.0693447596823213
45,0.14284983132191795,1.9198553270609984,-1.3218209970692363
46,0.14544589079918316,1.9198550758138226,-1.8192724140711607
47,0.14800033360674816,1.9198548241772933,-2.0283713645828962
48,0.15134609164546456,1.919854487961342,-2.1422810864029564
49,0.1554955706138483,1.9198540605376893,-2.1913583695240324
50,0.1606598535949024,1.9198535124342357,-2.208593425684366
51,0.16715021307973058,1.9198527981937294,-2.2147089506685322
52,0.17564328799994217,1.919851820837072,-1.4184230873768493
53,0.1804269790709336,1.919851249021074,-1.0403493125817895
54,0.18521067014192505,1.9198506618387954,-0.8952588859104484
55,0.191184008066987,1.919849907057493,-0.8293681669924442
56,0.1982949901916564,1.9198489772858445,-0.8031988578289129
57,0.20162054219401818,1.9198485308116178,-0.7964940066420105
58,0.20298395639240369,1.9198483456189948,-0.794099828329025
59,0.20371886626710067,1.9198482452783732,-0.7928632778630275
60,0.20438012368470887,1.9198481546838733,-0.9155703227881677
61,0.20498631120912633,1.9198480713761632,-1.1394308213097606
62,0.20762424425154993,1.9198477059744066,-1.7514638478936804
63,0.21042159978923308,1.9198473133845728,-2.0126850842177144
64,0.2136052761267315,1.9198468601836183,-2.1328152478320135
65,0.21767082043556293,1.9198462715515703,-2.187834348566164
66,0.2226992740025592,1.9198455281495541,-2.2074186555881097
67,0.22900874946450023,1.9198445713418901,-2.2140697123101014
68,0.23238946341547131,1.9198440476694019,-2.2163281965337496
69,0.23403373286597073,1.9198437901976881,-2.217398759367136
70,0.23496954896988317,1.9198436428500107,-2.218015530483321
71,0.23590536507379561,1.919843494914194,-2.0907859148348
72,0.23680360754108065,1.919843352364905,-1.8648447951398472
73,0.24103399051957594,1.9198426737261596,-1.2495496507515567
74,0.24526437349807123,1.9198419830684843,-0.9967643305590825
75,0.2505093099923198,1.9198411100850656,-0.8716663114033146
76,0.25670477439309,1.9198400550913886,-0.8201799566432311
77,0.26421346617413327,1.9198387419198195,-0.7980068308912921
78,0.2656073437755395,1.9198384939817474,-0.7952790629126006
79,0.26700122137694576,1.9198382447387465,-0.7927509578221488
80,0.26777047554629513,1.9198381066275334,-1.0701038021375937
81,0.2685397297156445,1.9198379681188724,-1.322595689623653
82,0.27116527839563287,1.9198374923803745,-1.8228943395016615
83,0.27372058565654117,1.9198370249234298,-2.0299890733804573
84,0.27707526624337026,1.9198364045743623,-2.143009900046198
85,0.2812338353881065,1.9198356250769617,-2.1915777479209315
86,0.2864087283375951,1.9198346388552638,-2.208603633722634
87,0.2929097977187717,1.9198333744006535,-2.214682876056734
88,0.3014418269296964,1.9198316718482038,-1.4161597350498714
89,0.30622809445547977,1.919830695347075,-1.0393898689662229
90,0.31101436198126314,1.9198297034576828,-0.8948118931561291
91,0.31699233807300925,1.919828442989946,-0.8291120586302476
92,0.3241089256462168,1.91982691114368,-0.802942106966112
93,0.3274354597040412,1.9198261834383787,-0.7962136654198537
94,0.32948657779687657,1.9198257310353326,-0.7926565810386671
95,0.3301572118328423,1.9198255825044235,-0.9170592971152595
96,0.3307704624277569,1.9198254464182387,-1.1431422419501955
97,0.3334602699363293,1.919824846539866,-1.7600954784690084
98,0.3362462861687746,1.9198242200807205,-2.015514322318274
99,0.339448326208415,1.919823493634522,-2.1342438935350176
100,0.3435293959631341,1.9198225577788834,-2.1883096540391795
101,0.34858158247749615,1.9198213837303795,-2.207515606865854
102,0.35491970953719226,1.9198198865984113,-2.2141027288171973
103,0.363181277907935,1.9198178946109443,-1.4311925701546304
104,0.36792851646045877,1.9198167292347155,-1.0461777585146734
105,0.37267575501298256,1.9198155487165378,-0.8977541305790478
106,0.3786187527175672,1.919814049499482,-0.8302176393324224
107,0.3856863362109703,1.9198122356946667,-0.8039788260143965
108,0.3887492014978988,1.9198114392249601,-0.7978876380476392
109,0.39181206678482733,1.919810636451564,-0.7927984003844241
110,0.39236839147105274,1.9198104899630397,-0.7919224484040329
111,0.39292471615727814,1.9198103432665445,-0.895558549424599
112,0.3934505718041005,1.9198102044131906,-1.0934625015686892
113,0.3964628260637436,1.9198094054399264,-1.7840868014016917
114,0.3993124358406905,1.9198086439942879,-2.028816119861835
115,0.40256768919001534,1.9198077674792844,-2.1405204712181254
116,0.4067263373453892,1.9198066373552405,-2.1907351674788744
117,0.4118624890077906,1.9198052255512372,-2.2082391234264533
118,0.41832887166086685,1.9198034228890115,-2.2144248753022384
119,0.4267965036518136,1.9198010198374713,-1.419545864865308
120,0.43157879300187496,1.91979964136619,-1.040570862066391
121,0.4363610823519363,1.9197982475240363,-0.8951457356596005
122,0.44233176028841054,1.9197964857396566,-0.8291658849280209
123,0.4494396906426629,1.9197943571420095,-0.8030559750113914
124,0.4527645362822335,1.9197933497996749,-0.7963909539645971
125,0.4541276953047597,1.9197929346499918,-0.7940108907935342
126,0.4554908543272859,1.9197925182512876,-0.7917585624853137
127,0.4562594402485404,1.9197922829237857,-1.0689815259689146
128,0.45702802616979493,1.9197920471992145,-1.3214579086018814
129,0.4596427761875639,1.9197912422846302,-1.8211177068760662
130,0.4621978802769943,1.9197904512915955,-2.029091475835934
131,0.4655474512267715,1.9197894077051263,-2.142462594877776
132,0.46970183390991516,1.9197881028951187,-2.191265459083244
133,0.47487377848905915,1.9197864622764818,-2.2083851195448436
134,0.4813750082186462,1.9197843744803629,-2.2144811675898866
135,0.48987782714187733,1.9197816010137776,-1.417619650598947
136,0.49466231998198634,1.919780019028451,-1.0398450632378657
137,0.49944681282209535,1.9197784216529155,-0.894860267705066
138,0.5054213371350927,1.9197764053584725,-0.8289858805967939
139,0.5125337047077095,1.919773973771276,-0.8027758440362286
140,0.51585905093874,1.9197728252279649,-0.7960497813196078
141,0.51790979388497,1.9197721132140653,-0.7924949703085296
142,0.5186079974143738,1.9197718701538986,-0.9219001663722827
143,0.5192419270415921,1.9197716491849885,-1.1544470523298103
144,0.521925349009802,1.9197707108314743,-1.7636561747413697
145,0.5246913099626276,1.9197697385476467,-2.015772543770123
146,0.5279008374206325,1.9197686038942734,-2.134409359112067
147,0.5319833048916239,1.9197671506242195,-2.188244400275831
148,0.537036024783485,1.9197653364456577,-2.2073500150706726
149,0.5433833617151849,1.9197630331044528,-2.213895108426074
150,0.5467797783742147,1.9197617894743921,-2.2161633695105216
151,0.5484299842679801,1.919761182435537,-2.217242205421666
152,0.5492700141572403,1.9197608727217137,-2.217797319031123
153,0.5501100440465005,1.9197605625333158,-2.1030216471104466
154,0.5509291116407274,1.9197602596284684,-1.8928758491871178
155,0.5551634216414707,1.9197586865146246,-1.2601075420959427
156,0.5593681893956323,1.9197571124435138,-1.0020869127188732
157,0.564586344884988,1.9197551424713084,-0.873756130447294
158,0.5707475209408849,1.9197527929093263,-0.8207488312617962
159,0.5782099228724941,1.9197499129340574,-0.7980249874250954
160,0.5795996834167757,1.919749372444204,-0.7952538789912171
161,0.5809894439610573,1.9197488306551382,-0.7926936477352535
162,0.5815504016302584,1.9197486116014142,-0.8970605802705461
163,0.5820798757057462,1.9197484046478333,-1.0960549148410736
164,0.5848658959302356,1.919747312579581,-1.7545561883710286
165,0.58772326995439,1.9197461871182944,-2.0170357994114285
166,0.5909140507342773,1.9197449238438564,-2.1343930279451127
167,0.5950068938236434,1.919743293403285,-2.188225158841924
168,0.6000640351088701,1.9197412632564717,-2.207298217093966
169,0.606417037206712,1.9197386885134127,-2.2138895918171007
170,0.6146905439404211,1.9197352947205353,-1.4303245434106546
171,0.619437029307563,1.9197333269220218,-1.045782759463767
172,0.6241835146747048,1.91973134396475,-0.8974675501658975
173,0.6301273975903958,1.919728839388088,-0.8298747262883726
174,0.6371954266999753,1.919725830186371,-0.8035067657452541
175,0.6402577427825693,1.9197245159724141,-0.7973612553817477
176,0.6433200588651633,1.9197231954476532,-0.7922285214748709
177,0.6437479662843842,1.919723010423886,-0.7915482957780499
178,0.6441758737036052,1.919722825276895,-0.8715881932938976
179,0.6445999236397617,1.9197226416773965,-1.0347582862343316
180,0.6474966455292953,1.919721384256491,-1.7461410258270453
181,0.6503933674188289,1.9197201211885377,-2.015839244675725
182,0.6535670100576922,1.9197187308910788,-2.1335299947377107
183,0.6576521108974344,1.9197169313269888,-2.1878634382844915
184,0.6626958232827748,1.9197146939819398,-2.2071106499424498
185,0.6690325633119982,1.9197118587924251,-2.2137006539280297
186,0.6724202311610776,1.9197103319923716,-2.215970518511828
187,0.6740671277737718,1.9197095869561627,-2.2170487206266554
188,0.6749057716659236,1.9197092068622013,-2.2176035826225435
189,0.6757444155580754,1.9197088262948125,-2.1030068805199815
190,0.6765623212315787,1.9197084546821854,-1.8930926483742034
191,0.6808029944824643,1.919706520726831,-1.2594708089339415
192,0.6850072862328525,1.9197045914129318,-1.001693194558677
193,0.6902266550773248,1.9197021797332925,-0.873444205873172
194,0.6963889005335364,1.9196993087765544,-0.8204925862613475
195,0.7038528763561674,1.9196957971142583,-0.7978002440133704
196,0.7053541501099883,1.919695086261898,-0.794821503558316
197,0.7068554238638091,1.9196943738920595,-0.7920821130656258
198,0.707626751657172,1.9196940072989688,-1.0701668507961617
199,0.708398079450535,1.9196936403052987,-1.3231540501707775
200,0.7110228264814001,1.9196923884637016,-1.822725090737398
201,0.7135780825413487,1.9196911653088677,-2.029628772281913
202,0.7169332334428946,1.9196895525826063,-2.142555883353814
203,0.721092565507429,1.9196875427862314,-2.1910841187136847
204,0.7262701001366874,1.9196850247164003,-2.2081010103195244
205,0.7327804890326929,1.9196818327982876,-2.2141824505687264
206,0.7413140219035294,1.9196776057438985,-1.4155396059037575
207,0.7461005959756363,1.9196752132619896,-1.0387604042630314
208,0.7508871700477432,1.9196728053488945,-0.8941608259490775
209,0.7568654304621892,1.9196697762781512,-0.8284228260103593
210,0.7639822767715546,1.919666138920016,-0.8022026717223587
211,0.7673080102455374,1.9196644274695407,-0.795455734680645
212,0.7693589293693504,1.9196633683351332,-0.7918888762540804
213,0.7700295073497113,1.9196630214209607,-0.9162828642792917
214,0.7706426929917268,1.9196627039327676,-1.1423573470975454
215,0.7732792177373361,1.9196613359374108,-1.7520166549784113
216,0.7760710024458859,1.9196598822787045,-2.012158564035457
217,0.7792571998126093,1.9196582168367113,-2.1322226165469
218,0.7833221978467324,1.9196560821117712,-2.187162568146964
219,0.7883531626354405,1.9196534246958057,-2.2067604675955663
220,0.794662484521253,1.9196500679322772,-2.213451987351331
221,0.7980404469524062,1.9196482597223976,-2.2157314118332856
222,0.7996836491182615,1.9196473773430103,-2.2168111150029643
223,0.8005207423481808,1.9196469271347014,-2.217365181585346
224,0.8013578355781001,1.9196464764542138,-2.1029672595148177
225,0.8021744422820655,1.9196460363484247,-1.8933110403532245
226,0.8064223374399648,1.9196437397196466,-1.2587223919841504
227,0.8106260895297853,1.9196414549858527,-1.0012227080854603
228,0.815846893772253,1.9196386009061313,-0.8730719980221453
229,0.822010370795492,1.9196352078472756,-0.8201951806830328
230,0.8294762653337713,1.919631063503312,-0.7975520107445416
231,0.8309776326956153,1.9196302255519142,-0.7945797729682947
232,0.8324790000574593,1.9196293860811724,-0.7918454673138581
233,0.8332502807416935,1.9196289542384977,-1.069920165605876
234,0.8340215614259276,1.9196285219948488,-1.3229097362916158
235,0.8366240896148215,1.9196270605182109,-1.8199964436609208
236,0.8391781049120874,1.9196256218457703,-2.0282376040714976
237,0.8425264575582742,1.919623729063381,-2.1417777417654666
238,0.846676958884176,1.9196213723457396,-2.1906486144245627
239,0.8518451963251457,1.9196184215083485,-2.2078109798167187
240,0.8583366863539978,1.9196146896379118,-2.213907825311837
241,0.8668476524567496,1.9196097537539696,-1.4165162595922274
242,0.8716327733587359,1.9196069572023151,-1.0389478560351184
243,0.8764178942607223,1.9196041452109314,-0.8940446903197683
244,0.8823937173545486,1.9196006118178963,-0.8282109095111403
245,0.8895076107642377,1.9195963741064812,-0.8020238104170028
246,0.8928325615591334,1.9195943817456091,-0.7953043931777487
247,0.8948831716068538,1.9195931492717644,-0.791751582403503
248,0.8955812575922663,1.9195927290555306,-0.9211414463185077
249,0.8962150671317952,1.9195923472461338,-1.15366715935699
250,0.8988530455356998,1.9195907552067561,-1.7567592225235122
251,0.9016231002107721,1.9195890784062861,-2.0128029148344244
252,0.9048187218425471,1.9195871375674545,-2.1325889058110308
253,0.9088883258202913,1.919584655949677,-2.187182681325043
254,0.9139279825403461,1.9195815673164434,-2.206610921397927
255,0.920252680381719,1.9195776668818378,-2.2132181975975387
256,0.9236344448309274,1.9195755702788622,-2.2154783574763472
257,0.9252790505167425,1.9195745478790955,-2.2165510926074647
258,0.9262149797809122,1.9195739652264991,-2.217166838683096
259,0.9271509090450818,1.9195733819829088,-2.0899154823245025
260,0.9280492051555611,1.9195728216353614,-1.8639498524293163
261,0.9322799089135655,1.9195701752471628,-1.24856698358642
262,0.9365106126715699,1.9195675167822137,-0.9957195240985971
263,0.9417558259055007,1.919564204056979,-0.8705486650751577
264,0.947951555986038,1.919560267096413,-0.8189708842143238
265,0.9554601881448543,1.9195554611560426,-0.7967013272001222
266,0.9573261071297288,1.9195542609620464,-0.7930811451288081
267,0.9578728771419791,1.9195539088241864,-0.7920852101009852
268,0.9584196471542294,1.9195535564845578,-0.8938572054555897
269,0.9589380793672367,1.9195532222195055,-1.0891944807671332
270,0.9616115567906208,1.9195514955848798,-1.7353423619413608
271,0.9644881519844936,1.919549632381197,-2.0100356294040136
272,0.9676396374963326,1.9195475847166814,-2.1303971370879267
273,0.9716958149147651,1.9195449393656416,-2.1862902857707427
274,0.9767056919045132,1.9195416567029209,-2.206234608013643
275,0.982990210420816,1.919537514888882,-2.21300550178857
276,0.9863437482540132,1.919535293828689,-2.2152669630448623
277,0.9879776761799987,1.9195342089215193,-2.2163351025250715
278,0.9888501371490994,1.919533628880471,-2.2169099080976076
279,0.9893507843958185,1.9195332958014828,-2.217241302148926
280,0.9898514316425375,1.9195329625532715,-2.1476149056655176
281,0.9903821885491559,1.9195326090782276,-2.0012832389504633
282,0.9937664329485942,1.9195303507565036,-1.3950907885392645
283,0.9979146031081242,1.9195275721153995,-1.0617987515072742
284,1.0028311880008005,1.9195242637073857,-0.9006506551220989
285,1.0086835404693029,1.9195203043358071,-0.8309494239956638
286,1.0157160450347344,1.9195155159446922,-0.8023375167141259
287,1.0190149263239272,1.9195132582473464,-0.7950696416493236
288,1.0200241945589548,1.9195125660533345,-0.7931461800645476
289,1.0206037089115632,1.9195121682897363,-0.7920858757534841
290,1.0211832232641715,1.9195117702993187,-0.8998369973104121
291,1.021727022005946,1.9195113966308648,-1.1035564902315933
292,1.02427209441962,1.9195096451429106,-1.7222038622276947
293,1.027144729811708,1.9195076629743169,-2.004481184607662
294,1.030269928595559,1.9195055002022325,-2.127522401414709
295,1.0342983221531414,1.9195027026479075,-2.185099917892432
296,1.0392738391644052,1.9194992322243385,-2.2057596298812743
297,1.045509442475338,1.9194948592777423,-2.212691675869141
298,1.0488329153763298,1.9194925178386257,-2.2149296369592237
299,1.0521563882773217,1.919490168937086,-2.2170743422035732
300,1.0539580171607978,1.9194888924965445,-1.8057967120698337
301,1.055759646044274,1.919487613862931,-1.492447972604791
302,1.0602744899364498,1.9194843999997513,-1.0819662993154624
303,1.0649982799202924,1.9194810226553232,-0.9123637796118638
304,1.0707719199971617,1.919476874226986,-0.8353976615511465
305,1.077656989876006,1.9194718977736105,-0.8042847387329001
306,1.0809239564056923,1.919469525238366,-0.7966146974834218
307,1.0823783958687876,1.9194684666752806,-0.7937592246055368
308,1.083832835331883,1.9194674066824349,-0.7911215770290386
309,1.0846030800797044,1.9194668447503687,-1.06884896348449
310,1.085373324827526,1.9194662824173054,-1.3216357632165794
311,1.08796440462418,1.9194643878026414,-1.8178680980122355
312,1.0905186597270888,1.9194625156727319,-2.0270090170904
313,1.0938624302092315,1.9194600582055794,-2.1409020507295744
314,1.0980102893532793,1.9194569992795485,-2.1900061462737628
315,1.1031735876955122,1.919453175246308,-2.207255907273865
316,1.1096573096832612,1.9194483477563975,-2.2133813972651732
317,1.1181464034123836,1.919441984186969,-1.4172071547810365
318,1.122930495558291,1.9194383764813046,-1.038837650829421
319,1.1277145877041985,1.9194347532984755,-0.8936066274002832
320,1.13368795579723,1.9194302077017613,-0.8276237378083007
321,1.1407989212965128,1.9194247649560885,-0.8013869184443952
322,1.1441224614472427,1.9194222093844313,-0.7946631597749095
323,1.1461726506699996,1.9194206292051985,-0.7911087316923533
324,1.1468706013826524,1.9194200906123722,-0.9204778432530594
