,time,theta,torque
0,0,1.91986217719376,-135.084431092689
1,0.000513656925506,1.91986217710519,-81.9434161146847
2,0.000999492361505,1.91986217685842,-56.1556574978509
3,0.001627907682783,1.91986217630417,-37.6158124494778
4,0.002389617332367,1.91986217527691,-25.2193925079358
5,0.003286321909635,1.9198621735684,-16.9176483988103
6,0.004298071187802,1.91986217099253,-11.2663675757961
7,0.005402729587368,1.91986216739531,-7.29117394541096
8,0.006636841977901,1.91986216240765,-4.42741985227174
9,0.008528885410373,1.91986215277545,-2.26613757086634
10,0.010330191666469,1.91986214137193,-1.79794781698422
11,0.011842775598428,1.91986213011359,-2.17114700971845
12,0.013355359530388,1.91986211731921,-2.6723618193451
13,0.014778374710932,1.91986210388018,-2.62247852501214
14,0.016392289902282,1.91986208699297,-2.10753736503031
15,0.017932996995692,1.91986206924022,-1.23653138051304
16,0.019444234652529,1.91986205027879,-0.395303705015664
17,0.021701125681075,1.91986201910692,0
18,0.023120471821222,1.91986199775155,-0.297195319601731
19,0.02453981796137,1.91986197504367,-1.10051748100784
20,0.026064257433182,1.919861949148,-2.0051413344565
21,0.028787185341546,1.91986189901129,-1.89942866326475
22,0.030736425850271,1.91986186006317,-0.925746633229223
23,0.032531966998725,1.91986182192903,-0.088869759804707
24,0.034406776773125,1.91986177980143,0
25,0.035943127897352,1.91986174351986,-0.340030405049882
26,0.037479479021579,1.9198617056536,-1.275208235263
27,0.038710350327365,1.91986167417308,-1.98455780230099
28,0.039909509924406,1.91986164252543,-2.15196847609947
29,0.041419106458453,1.9198616013122,-1.83042341593007
30,0.042905678181416,1.9198615592324,-1.11581138257938
31,0.044373172457045,1.91986151623739,-0.342049813772769
32,0.046282777794762,1.91986145812448,0
33,0.047570803166503,1.91986141754485,0
34,0.048816900157387,1.91986137722616,-0.482392954220537
35,0.050098717364004,1.91986133466396,-1.29145653322856
36,0.051226329023312,1.91986129631006,-1.94808555195622
37,0.05235394068262,1.9198612571025,-2.14979763170875
38,0.054570244637144,1.91986117755278,-1.59221905182571
39,0.056577831011216,1.91986110264796,-0.521874524060022
40,0.058539877238868,1.91986102682772,0
41,0.060003117982585,1.91986096860055,0
42,0.06140343077248,1.91986091153142,-0.499208179481101
43,0.062774654971008,1.91986085437202,-1.36716808911816
44,0.06372662130912,1.91986081394695,-1.92098262488264
45,0.064678587647232,1.91986077291344,-2.15407679762161
46,0.066057660506642,1.91986071239081,-1.98588546510856
47,0.067501627222108,1.9198606476518,-1.40323320455603
48,0.068921376808661,1.91986058263371,-0.627258255055548
49,0.070523489311581,1.919860507639,0
50,0.072159026331551,1.9198604293021,0
51,0.073764213251746,1.91986035067259,-0.376627830373766
52,0.075222774744906,1.91986027772538,-1.28139387785966
53,0.076435320335325,1.91986021599492,-1.97705485951328
54,0.077596149187096,1.91986015597249,-2.14071414319751
55,0.079055183303391,1.9198600792477,-1.84437954880209
56,0.080514489592104,1.91986000107896,-1.15953972081445
57,0.081960296557058,1.91985992222331,-0.388777544833388
58,0.08389900275481,1.91985981428178,0
59,0.085348565644236,1.91985973192554,0
60,0.086659217527759,1.91985965624702,-0.560073512169884
61,0.087997715792667,1.91985957777027,-1.41654443426068
62,0.088977076001771,1.9198595195879,-1.96671575912569
63,0.089956436210876,1.91985946076156,-2.14747232643649
64,0.09162478256116,1.91985935906763,-1.84640173239139
65,0.093216302861313,1.91985926031496,-1.08790145937557
66,0.094744125089762,1.91985916391483,-0.294167316703443
67,0.096615836801846,1.91985904368045,0
68,0.097920972416723,1.91985895844969,0
69,0.099142311074311,1.91985887765535,-0.515455512947032
70,0.100416538163997,1.91985879229482,-1.32466146941843
71,0.10148387023217,1.91985871995519,-1.94361525559977
72,0.102551202300343,1.91985864685069,-2.1516098297756
73,0.10454288270193,1.91985850838974,-1.71774898819242
74,0.106418969761105,1.91985837552884,-0.741712903458363
75,0.108181956327022,1.91985824852372,-0.00244476449722
76,0.109963813101016,1.91985811803874,0
77,0.111478361954285,1.91985800545262,-0.392146903460421
78,0.112955162226123,1.91985789418955,-1.30961240116399
79,0.114022409906365,1.91985781287095,-1.93338538138572
80,0.115089657586606,1.91985773078758,-2.15493569922937
81,0.11686126203576,1.91985759284286,-1.81481084097791
82,0.118596339575107,1.91985745569969,-0.95514722389828
83,0.120223578960827,1.91985732524344,-0.161009414103744
84,0.122225472562788,1.91985716231205,0
85,0.123558342324862,1.91985705233942,-0.165213159238251
86,0.124891212086935,1.91985694117397,-0.904267883449413
87,0.126328122903409,1.91985681999506,-1.80749577260737
88,0.128630436567771,1.91985662294405,-2.05386276281795
89,0.130475662438648,1.9198564624451,-1.33686457806381
90,0.13217562211693,1.91985631255824,-0.421433543609086
91,0.134148159494987,1.919856136206,0
92,0.135471140287456,1.91985601646284,0
93,0.136762683823231,1.91985589843143,-0.474828653148742
94,0.138069237710916,1.91985577788863,-1.2979086963356
95,0.139064264905828,1.91985568531847,-1.890142828536
96,0.140059292100739,1.91985559208353,-2.15229151397269
97,0.141386652368074,1.91985546667377,-2.00285703819438
98,0.142801290930561,1.91985533171565,-1.45242397628174
99,0.144203174745507,1.91985519664877,-0.68842443760968
100,0.145755939176252,1.91985504550478,-0.030874204338717
101,0.147536624099528,1.91985487018251,0
102,0.149051169529984,1.9198547193882,-0.326423223291404
103,0.150565714960441,1.91985456705368,-1.25151583567577
104,0.151682949798598,1.91985445369392,-1.91516221903003
105,0.152800184636754,1.91985433949603,-2.1564899313943
106,0.154510172974181,1.9198541630869,-1.8336392703468
107,0.156202424917197,1.91985398657457,-1.00696492730503
108,0.157797299165837,1.91985381845925,-0.207605639477008
109,0.159754137229779,1.91985360985603,0
110,0.16125940816765,1.9198534476412,-0.16282204533559
111,0.16276467910552,1.91985328390493,-1.01350738772233
112,0.164338296805028,1.91985311110759,-1.9592217083315
113,0.167146235368826,1.91985279864013,-1.82643020533264
114,0.169374702671102,1.91985254688809,-0.688628340498708
115,0.171386058076962,1.91985231680027,0
116,0.17288450246413,1.91985214362086,0
117,0.174353902390726,1.91985197233404,-0.426530603078098
118,0.175735876924665,1.91985180991533,-1.28624197443682
119,0.176751866531678,1.9198516896916,-1.89260184299565
120,0.177767856138691,1.91985156877473,-2.15844500392956
121,0.179125014969748,1.91985140617263,-1.99705042698438
122,0.180556638455516,1.91985123330842,-1.42704967604732
123,0.181968725956015,1.9198510614549,-0.655103865903059
124,0.18354863919007,1.91985086758957,-0.007755568623649
125,0.185309609254663,1.91985064953215,0
126,0.186818849902156,1.91985046098878,-0.360617684730447
127,0.188328090549649,1.91985027091584,-1.29198646195554
128,0.189529140553898,1.91985011856333,-1.97980440479991
129,0.190663234202102,1.91984997381503,-2.14486697955493
130,0.192123834303355,1.91984978612112,-1.85642458316959
131,0.19358623293358,1.91984959676088,-1.17496465138598
132,0.19503203082106,1.91984940813846,-0.401616239297889
133,0.196939020329428,1.91984915720108,0
134,0.19835182795946,1.91984896971743,0
135,0.199683395571709,1.91984879178759,-0.519198788820026
136,0.201025370918304,1.91984861126237,-1.37311117945866
137,0.202041200956652,1.91984847380667,-1.95357379428709
138,0.203057030995001,1.91984833565802,-2.14959223319075
139,0.204815512211547,1.91984809487386,-1.8149879766618
140,0.206541547211666,1.91984785651304,-0.963549726928742
141,0.208161895401332,1.91984763092666,-0.16892004113107
142,0.210195514230646,1.91984734530934,0
143,0.211531861381361,1.91984715611018,-0.167486431212934
144,0.212868208532076,1.91984696571176,-0.910886579987456
145,0.214309615001312,1.91984675900045,-1.81545614567782
146,0.216632825427283,1.91984642289344,-2.04380579139469
147,0.21843484826133,1.9198461596924,-1.33794717240215
148,0.220108271295026,1.91984591332163,-0.435403029431433
149,0.22204363831875,1.91984562604081,0
150,0.223483731390855,1.91984541064494,0
151,0.224832994067299,1.91984520757091,-0.533256070336365
152,0.226187380518371,1.91984500249615,-1.39575994072531
153,0.227297654284022,1.91984483346492,-2.00745923374092
154,0.228381892063356,1.91984466759853,-2.14356530878041
155,0.229690661287105,1.91984446633173,-1.89935879314697
156,0.231063966820054,1.91984425390353,-1.29321105423376
157,0.232448017610036,1.91984403853174,-0.538644012085308
158,0.234105187689031,1.9198437789676,0
159,0.235854897587401,1.91984350290721,0
160,0.237459548355798,1.91984324792608,-0.563478975396458
161,0.238950963239702,1.91984300938776,-1.51649868553526
162,0.240820597357597,1.91984270824657,-2.14381637539494
163,0.242565330819455,1.91984242510551,-1.79211413884043
164,0.244190352691212,1.91984215955284,-0.988268483030616
165,0.245753377750704,1.91984190245807,-0.207115393966451
166,0.247693595121423,1.91984158103823,0
167,0.249188033744318,1.91984133174325,-0.143788601355055
168,0.250682472367213,1.91984108094833,-0.979548437838925
169,0.252239496964232,1.91984081805483,-1.92733689726001
170,0.254884579271098,1.91984036771736,-1.89432868341994
171,0.256785480368373,1.91984004117829,-0.983610153168184
172,0.258538223963696,1.91983973793939,-0.134768264606355
173,0.260542372606563,1.9198393886769,0
174,0.26191190816132,1.91983914845668,-0.222914951400643
175,0.263190436369986,1.91983892306245,-0.952400655716784
176,0.264609395071626,1.91983867162606,-1.83776514721403
177,0.266660685599033,1.91983830575132,-2.10505626302267
178,0.26840396603332,1.91983799259279,-1.49872093904048
179,0.270048835565876,1.91983769524098,-0.603621202718561
180,0.271787502677947,1.91983737895727,0
181,0.273474985445681,1.91983707004298,0
182,0.275058570774757,1.91983677840879,-0.514235648627231
183,0.27652123621574,1.91983650754694,-1.44263207416942
184,0.277437739286145,1.91983633709319,-1.95829132851664
185,0.27835424235655,1.91983616607526,-2.1529381660907
186,0.279891597758874,1.91983587794041,-1.92569251590908
187,0.281421936549135,1.91983558954401,-1.24889799133576
188,0.28289845563509,1.91983530979906,-0.450871071096679
189,0.284721717963535,1.91983496233875,0
190,0.286135054169403,1.91983469146207,0
191,0.287515304238739,1.91983442563163,-0.448558144382141
192,0.288856810114762,1.91983416603692,-1.29032585744803
193,0.289876360980346,1.91983396793524,-1.89633152604726
194,0.29089591184593,1.91983376913535,-2.15343476082432
195,0.29230378605466,1.91983349346941,-1.97094763635382
196,0.293762434271162,1.91983320645751,-1.36841276123864
197,0.295191751077578,1.91983292383068,-0.587312965368403
198,0.296829698249884,1.91983259826288,0
199,0.298405791301169,1.91983228328824,0
200,0.299961404293161,1.91983197077024,-0.378590571134625
201,0.301394111398435,1.91983168150573,-1.2667590693944
202,0.302466065816015,1.91983146417568,-1.90390135670923
203,0.303538020233594,1.91983124607376,-2.15326233161272
204,0.305141912403012,1.91983091830131,-1.88804618988801
205,0.306703478573573,1.91983059751843,-1.16797595961161
206,0.308204902725899,1.91983028754556,-0.369456828805527
207,0.310227199309259,1.91982986764383,0
208,0.311582896220276,1.91982958461411,0
209,0.312821051087011,1.91982932504504,-0.543590082434901
210,0.314111831222529,1.91982905334712,-1.36714582808166
211,0.315034334831312,1.91982885848241,-1.90609217816879
212,0.315956838440094,1.91982866304602,-2.14746633142804
213,0.317222884525542,1.91982839389803,-2.02274120322146
214,0.318602809164088,1.91982809931428,-1.5133913146083
215,0.319984119623192,1.9198278031536,-0.767148998202847
216,0.321485523131292,1.91982747979057,-0.088539935161879
217,0.323341895272632,1.91982707788291,0
218,0.324672574530259,1.91982678836417,-0.182532305312494
219,0.325973864256414,1.91982650408936,-0.91319150100928
220,0.327396243462199,1.91982619206054,-1.80714168322132
221,0.329732662240138,1.91982567656805,-2.04279536551106
222,0.331547413078331,1.91982527364264,-1.32972925109307
223,0.333228471166446,1.9198248984268,-0.424387088978215
224,0.3351863166527,1.91982445903832,0
225,0.336652397911271,1.91982412832764,0
226,0.337984774690504,1.91982382652484,-0.563931709798831
227,0.339335866104519,1.91982351926504,-1.42769471566019
228,0.340312085155799,1.91982329649404,-1.97343497875005
229,0.34128830420708,1.9198230730828,-2.14938438541203
230,0.342877721362091,1.91982270796917,-1.8727307955689
231,0.344426162449567,1.91982235063626,-1.15287358370207
232,0.345922000621638,1.91982200391282,-0.35982927455631
233,0.347970883552014,1.91982152655833,0
234,0.349488684969103,1.9198211711182,-0.047594708275486
235,0.350899289795257,1.91982083939383,-0.771364687591081
236,0.352345978316414,1.91982049779529,-1.69619470036706
237,0.354446126638584,1.91981999939663,-2.13393814641656
238,0.356351034326274,1.91981954476881,-1.51029152358732
239,0.358103276748531,1.91981912442358,-0.559490985947329
240,0.359928914899994,1.91981868427717,0
241,0.361409544011307,1.9198183256651,0
242,0.362859976841629,1.91981797293847,-0.429772441395714
243,0.364231725350469,1.91981763804633,-1.28428663651444
244,0.36523035233292,1.91981739345109,-1.88221592270977
245,0.366228979315371,1.9198171481858,-2.15482714385653
246,0.367519017683681,1.91981683035729,-2.02070237475633
247,0.368913199435222,1.91981648561363,-1.49517503737028
248,0.370302830581075,1.9198161406956,-0.74072833715484
249,0.371821995380442,1.9198157621417,-0.068388729115616
250,0.373645378937178,1.91981530573334,0
251,0.374989927699343,1.91981496775042,-0.207820135352389
252,0.376252944995557,1.91981464915584,-0.92422595572953
253,0.377655089732399,1.91981429421108,-1.80544268209624
254,0.380010004129978,1.91981369510581,-2.04135587932368
255,0.381824377071321,1.9198132309763,-1.32436982235304
256,0.383505064670012,1.91981279907095,-0.419561651150243
257,0.385472466420099,1.91981229107407,0
258,0.386796167524147,1.91981194782157,0
259,0.388088920317239,1.91981161145794,-0.473446591690976
260,0.389396102463499,1.91981127019808,-1.2968745564428
261,0.390390039671925,1.91981100994715,-1.88872545037795
262,0.391383976880351,1.91981074903239,-2.15164993327579
263,0.392705188277824,1.91981040117839,-2.00462980015268
264,0.394116349972858,1.91981002834643,-1.45821268695978
265,0.395516041985663,1.9198096572229,-0.69587567657025
266,0.397063262718962,1.9198092454507,-0.036082184061993
267,0.398849353908906,1.91980876810596,0
268,0.400364798729852,1.9198083614122,-0.31962432241579
269,0.401853015104521,1.9198079605237,-1.22545487913231
270,0.403508386236288,1.9198075128594,-2.10523450776188
271,0.405532689345671,1.91980696292153,-1.94194064249227
272,0.407252651622616,1.91980649349939,-1.16522762927973
273,0.40888146654348,1.91980604712097,-0.3097187879264
274,0.410901920982388,1.91980549093589,0
275,0.412409202351382,1.919805074229,-0.086886078377706
276,0.413916483720375,1.91980465599533,-0.895061790447939
277,0.415452825702755,1.91980422812683,-1.85241365073329
278,0.417484909641035,1.9198036597585,-2.09111164129053
279,0.419218775686499,1.9198031726068,-1.4835285278188
280,0.42085669124583,1.91980271055784,-0.593692961589346
281,0.42259691147582,1.91980221767378,0
282,0.424322984023009,1.91980172678629,0
283,0.425918941983608,1.91980127112123,-0.547980289183878
284,0.427399666536575,1.9198008468258,-1.49189881380065
285,0.428516526461562,1.91980052581937,-2.07166822810747
286,0.42963338638655,1.91980020397461,-2.13892842841921
287,0.43096027161323,1.91979982051736,-1.83404766627955
288,0.432332235912195,1.91979942278841,-1.1855272833413
289,0.433725946677159,1.91979901745991,-0.434782598771025
290,0.435542494976065,1.91979848719921,0
291,0.436946670775365,1.91979807579258,0
292,0.43831806589148,1.91979767271115,-0.45097508389039
293,0.439656048126626,1.91979727823223,-1.29118057171768
294,0.440677075412881,1.91979697639208,-1.89757960616445
295,0.441698102699136,1.91979667385125,-2.15307790893762
296,0.443118472739846,1.91979625181571,-1.96549255072519
297,0.444583842508436,1.91979581498828,-1.35512731018819
298,0.446017462546616,1.91979538622874,-0.571991306029673
299,0.447670461140338,1.91979489014393,0
300,0.449296449302787,1.91979440037348,0
301,0.450866141500999,1.91979392587434,-0.438733358775745
302,0.452313148911888,1.9197934869943,-1.34795875295596
303,0.453264410711148,1.9197931977081,-1.9056553643799
304,0.454215672510408,1.91979290781365,-2.14898090727468
305,0.455535452315325,1.91979250460702,-2.00307185810298
306,0.456945774146074,1.91979207244481,-1.45802976759019
307,0.458345020503716,1.91979164235517,-0.696434327160835
308,0.459891183225451,1.91979116557693,-0.036475805987546
309,0.461678235720911,1.91979061251538,0
310,0.463193926395367,1.9197901417531,-0.317761678351701
311,0.464663044133131,1.91978968398223,-1.21079098991616
312,0.46630097024791,1.91978917190091,-2.08963622850355
313,0.467853763884959,1.91978868477018,-2.06214761072828
314,0.469500488344054,1.91978816640133,-1.46831183471053
315,0.47103392982643,1.9197876820535,-0.634740066672767
316,0.472689792059646,1.91978715726322,0
317,0.474323193482483,1.91978663778556,0
318,0.475920682149193,1.91978612799458,-0.39499338662252
319,0.477378135334746,1.9197856613952,-1.30275990162798
320,0.478570879598415,1.91978527847911,-1.98219070583423
321,0.479669401529236,1.91978492496592,-2.14296446670736
322,0.48107780276649,1.9197844705443,-1.87877376642944
323,0.482512084331829,1.91978400640189,-1.22795861035745
324,0.48393638618332,1.91978354412041,-0.458450541697333
325,0.485717652840194,1.91978296406057,0
326,0.48718357707074,1.91978248509021,0
327,0.488601028968771,1.91978202058368,-0.45914145977749
328,0.48996531549317,1.91978157222402,-1.31826583704711
329,0.491145344555328,1.91978118340957,-1.98699890911824
330,0.492230052396864,1.91978082517727,-2.14409197716309
331,0.493605466304726,1.91978036979982,-1.89196776230541
332,0.495021142196342,1.91977989976404,-1.25907778313891
333,0.49643217714772,1.91977942992836,-0.493172083504824
334,0.49815639932295,1.91977885399274,0
335,0.499738427518162,1.91977832379531,0
336,0.501235062007304,1.91977782066761,-0.497443262348151
337,0.502651397186328,1.9197773431474,-1.3958012017646
338,0.503667517454522,1.91977699972953,-1.96910484130693
339,0.504683637722717,1.91977665561746,-2.14832218264167
340,0.506364970224417,1.91977608470467,-1.82914687063775
341,0.507959593223413,1.91977554147876,-1.05870379275944
342,0.509493738542285,1.91977501724156,-0.26921887672866
343,0.511509983739054,1.91977432585806,0
344,0.513022447255783,1.91977380543029,-0.116276171922155
345,0.514534910772512,1.9197732834644,-0.949487106080574
346,0.516092594245955,1.91977274428487,-1.90526179024943
347,0.518574853944904,1.91977188169929,-1.94983900164049
348,0.520405991400987,1.91977124272329,-1.13007250227403
349,0.522100814078314,1.91977064930525,-0.255680448821341
350,0.524115706196586,1.91976994130637,0
351,0.525633107669097,1.91976940631517,-0.138128481514782
352,0.527150509141608,1.91976886977569,-0.984953068768946
353,0.528721948888954,1.91976831249676,-1.93791994676911
354,0.531393637062006,1.9197673612257,-1.8801356962726
355,0.5334567683469,1.91976662335059,-0.868829211148608
356,0.535319953736478,1.91976595452606,-0.037278706546266
357,0.537146871337016,1.91976529645376,0
358,0.538677773897722,1.91976474328032,-0.366986326540333
359,0.540208676458428,1.91976418853078,-1.31159205977496
360,0.541226912210637,1.91976381868233,-1.91201254744087
361,0.542245147962845,1.91976344813663,-2.15709623524804
362,0.543725288801498,1.91976290825581,-1.946377044815
363,0.545223430652138,1.9197623603088,-1.29981643157576
364,0.546678575059001,1.91976182664308,-0.507449968470271
365,0.548411241910715,1.91976118934032,0
366,0.54998072788306,1.91976061031535,0
367,0.551474127055492,1.91976005782269,-0.486054651017
368,0.552884583802623,1.91975953463782,-1.37810610667456
369,0.554166194770225,1.91975905808588,-2.07188620768729
370,0.555447805737827,1.91975858042926,-2.1264211317241
371,0.556915912710419,1.91975803190801,-1.72316975739578
