,time,theta,torque
0,0.0,1.9198621771937625,-135.0844310926892
1,0.0005109576409673204,1.9198621771061228,-81.25702880835968
2,0.001000563436640357,1.9198621768576998,-54.93793402495654
3,0.0016484166060880948,1.919862176281615,-35.926689833937765
4,0.002463764789791783,1.9198621751561127,-23.264924912169853
5,0.0035003292896912154,1.919862173080856,-15.129259608243213
6,0.004480211638213893,1.9198621704558079,-11.04845410176937
7,0.006128622528571084,1.9198621645854554,-7.288872960902974
8,0.008088975589938659,1.919862155229426,-5.0639771343943245
9,0.01051374570048319,1.9198621400876041,-3.375215327363708
10,0.012852823340542848,1.9198621217403655,-2.304415394214029
11,0.014324744506110532,1.9198621083119027,-1.8963891430827426
12,0.015139350630450655,1.9198621002549285,-1.7242253085579384
13,0.015953956754790777,1.919862091752445,-1.7071317741567922
14,0.016764954204248162,1.9198620828450734,-1.8188782922123177
15,0.020096180892376192,1.9198620416254342,-2.063079327854182
16,0.023419952541704356,1.91986199307279,-1.7534186947045243
17,0.026420142043699624,1.91986194287795,-1.3202933169910218
18,0.027448438715404973,1.919861924283404,-1.2244121233959429
19,0.027977214601099004,1.919861914445239,-1.1820213759195226
20,0.028505990486793035,1.9198619044193554,-1.2414592295778741
21,0.029016527759305574,1.9198618945611685,-1.391414768281219
22,0.031141160507254514,1.9198618516562802,-1.7903070001608898
23,0.03367554643688057,1.9198617965131266,-2.0130107475676557
24,0.03507986774073441,1.91986176410116,-1.8903851081815588
25,0.03634893431269808,1.9198617336720083,-1.6369598257964366
26,0.0383953953816259,1.9198616823251453,-1.3545763138974634
27,0.040441856450553725,1.919861628166565,-1.1699323417773564
28,0.04113503481368746,1.9198616091844523,-1.249655689499069
29,0.04177039625747777,1.919861591502253,-1.4307762301372369
30,0.04422448900153314,1.919861520659383,-1.8465008568364554
31,0.046816567340586174,1.9198614414424267,-2.0420691180955064
32,0.04863701818505903,1.9198613831107965,-1.691779087832927
33,0.05045746902953188,1.9198613225541927,-1.416704067932896
34,0.05286259097824764,1.9198612391371115,-1.1830462032729365
35,0.05324902171594422,1.919861225372374,-1.1546429375287188
36,0.053635452453640806,1.91986121150738,-1.2003290364862094
37,0.05403061313274629,1.91986119722548,-1.3233245539155507
38,0.05589616591789991,1.9198611283848912,-1.7205729715025155
39,0.05844841551648042,1.9198610304195463,-1.9825655195158682
40,0.0592022265387438,1.919861000648734,-2.028380875624321
41,0.05995603756100719,1.9198609704964216,-1.95937944004475
42,0.06069662506093354,1.9198609405015272,-1.791283899904035
43,0.06362436236612244,1.9198608183185246,-1.3475565086902135
44,0.06593671254973524,1.9198607177498654,-1.1462807996489295
45,0.06674665543309703,1.91986068167493,-1.3813426714216226
46,0.06749345710930044,1.9198606480220404,-1.55904355822455
47,0.07031999310672578,1.919860517260177,-1.9341051938445384
48,0.07148085781432353,1.919860462002115,-2.0146481114683694
49,0.07264172252192129,1.9198604058392852,-1.912551734715939
50,0.07371386880208713,1.919860353164977,-1.6887024649334408
51,0.0777371344379025,1.9198601486210163,-1.1976725498153957
52,0.07824442514625052,1.919860122058681,-1.1595207994442063
53,0.07875171585459853,1.9198600953235672,-1.2189901130260912
54,0.07924489055447684,1.9198600691667578,-1.3675472712253514
55,0.08126253386283891,1.9198599604551538,-1.7646605308823504
56,0.08378451223465236,1.9198598207263926,-2.0005387503978342
57,0.08514078775486164,1.9198597438169638,-1.885641661524886
58,0.08637000860229167,1.919859673045443,-1.6400019560433594
59,0.08826677885630332,1.9198595618497827,-1.3731787388358752
60,0.09016354911031497,1.9198594482386062,-1.1941704666263173
61,0.09070897566581103,1.919859415121932,-1.1537433216631003
62,0.09125440222130708,1.9198593818055227,-1.2183978714228803
63,0.09177736969817407,1.9198593496734186,-1.3753110824775103
64,0.09401597681223142,1.9198592100538634,-1.7971066597052454
65,0.09654981866009323,1.9198590479613171,-2.0160841324414807
66,0.09795898860521939,1.9198589559499366,-1.8921195325328544
67,0.09923221153410262,1.9198588716686602,-1.6375909046456643
68,0.10131946338394968,1.9198587311478805,-1.3505161256690807
69,0.10340671523379673,1.91985858770203,-1.1641405158135876
70,0.10410039324601521,1.9198585393815877,-1.2446405975808514
71,0.10473606545572299,1.9198584948180506,-1.4266700607610239
72,0.10710752625635042,1.919858326173755,-1.835565141214432
73,0.10968881247313883,1.9198581383160884,-2.03666022185939
74,0.11150864298143601,1.9198580031859296,-1.6884592874107862
75,0.11332847348973318,1.9198578658321843,-1.4145679805544285
76,0.11573117673254482,1.9198576810795303,-1.1818619370408259
77,0.1164302447464141,1.9198576265976934,-1.2605965452276926
78,0.11707009144473517,1.919857576443664,-1.4408247668381537
79,0.11958741915264819,1.9198573764562132,-1.8575459573458775
80,0.12219521543532615,1.9198571647946616,-2.047738144395191
81,0.12401629992493396,1.9198570142788534,-1.6952763696371336
82,0.12583660435943878,1.9198568616022589,-1.4190427777950843
83,0.1282419985583581,1.9198566564393575,-1.1844579439828007
84,0.1286284389479073,1.9198566231165632,-1.1559537077060755
85,0.12901487933745648,1.9198565896934996,-1.2015388809846688
86,0.12941007537378083,1.9198565554094613,-1.3244185763114404
87,0.13132061387722818,1.919856388187566,-1.727869447088027
88,0.13386706427118503,1.9198561614965834,-1.985428128181979
89,0.13462442390947865,1.9198560932346274,-2.03085701539814
90,0.13538178354777228,1.9198560245875382,-1.9610876533888757
91,0.13612542079606638,1.9198559568095175,-1.7921037045245016
92,0.1390655976712238,1.919855685194033,-1.346642730496843
93,0.14012704832398115,1.9198555857105328,-1.2431483856488215
94,0.1411884989767385,1.9198554854705314,-1.1589252657929134
95,0.14200779063264848,1.919855407581943,-1.394418802741171
96,0.1427527590380562,1.919855336367906,-1.5687718606606402
97,0.1455921761860758,1.9198550615216112,-1.939005339385135
98,0.14675914210248098,1.9198549469935073,-2.0183160592678204
99,0.14792610801888614,1.919854831551014,-1.9145416438783918
100,0.14900338351866313,1.9198547241695,-1.6891754367603877
101,0.1530089513561187,1.9198543180640524,-1.1993088455091125
102,0.15355763891193744,1.9198542615962935,-1.1581010218767447
103,0.15410632646775618,1.919854204926386,-1.2226199658540156
104,0.15463192507952173,1.9198541504515982,-1.3795883813005299
105,0.156730205076881,1.9198539311304719,-1.7812618515589795
106,0.15925739947908132,1.9198536630528633,-2.008399724156732
107,0.16063367337436332,1.9198535152579956,-1.889473632503287
108,0.16187964027625673,1.9198533803595752,-1.6401035962109292
109,0.16383877025267246,1.919853166140223,-1.366241272016015
110,0.1657979002290882,1.9198529493436316,-1.1844822539185773
111,0.1662481025738225,1.9198528991602386,-1.1515381055804566
112,0.1666983049185568,1.9198528488407494,-1.2050786641152185
113,0.16714570093979497,1.919852798700099,-1.3426311884449484
114,0.1690898543849871,1.9198525792535412,-1.7419914434486454
115,0.1716204354227969,1.9198522898120884,-1.9907462901951796
116,0.17238501606356008,1.9198522015154191,-2.035499895949134
117,0.17314959670432326,1.9198521128262116,-1.9642515692080518
118,0.17389942154139715,1.9198520254673874,-1.7935284203711515
119,0.17686703932445877,1.9198516760192685,-1.3444595732828404
120,0.17798313452287326,1.919851543064615,-1.2365654765163092
121,0.17861615855898838,1.9198514672839837,-1.1850076422562434
122,0.1792491825951035,1.9198513912342725,-1.2558503768502605
123,0.17983982828484563,1.919851320033113,-1.424495121893962
124,0.18216123682410457,1.9198510379222713,-1.8292742992515216
125,0.18473647191079845,1.9198507207311837,-2.0330498490679543
126,0.1861752439491223,1.9198505415789393,-1.901372925869964
127,0.18747370259116636,1.9198503787048422,-1.6404102403788272
128,0.19008502075875805,1.919850047722328,-1.2978186833241183
129,0.19095996519538946,1.919849935799667,-1.2185013226591301
130,0.19142395203149237,1.9198498762380072,-1.1815252775459828
131,0.19188793886759528,1.919849816531782,-1.2336861536825392
132,0.1923470715224868,1.9198497573078925,-1.3707350411439743
133,0.19431580724850628,1.919849501754233,-1.7595498415072246
134,0.19683841419356804,1.9198491705006837,-1.998204808151122
135,0.19754666484683944,1.9198490767291716,-2.038600170436888
136,0.19825491550011085,1.9198489826208125,-1.972007398483013
137,0.19895798576053572,1.9198488888676342,-1.8098545482497355
138,0.20178934474761345,1.9198485079508656,-1.3680568754378442
139,0.20409683247748406,1.9198481935316771,-1.1594643436782417
140,0.20490457770154272,1.9198480826231052,-1.3915192626082031
141,0.20564618066084442,1.919847980410493,-1.5658004035158823
142,0.2084831325908662,1.9198475859942967,-1.9375958893042164
143,0.20964837585719234,1.9198474224268096,-2.0172683869138757
144,0.21081361912351848,1.9198472579475128,-1.9139860738356569
145,0.2118894511744556,1.9198471052794597,-1.68906127842248
146,0.21590778796025228,1.9198465281762311,-1.1981988310527005
147,0.21645644258502134,1.9198464485385123,-1.1570640324211305
148,0.2170050972097904,1.9198463686986422,-1.2216468237363156
149,0.21753066464347917,1.9198462920288346,-1.3786969333308958
150,0.21971534106920126,1.919845971339978,-1.7917909886516448
151,0.22224684722098365,1.9198455957310874,-2.0135486431969647
152,0.22365197820767965,1.9198453853892667,-1.8907596221275276
153,0.22492175424466584,1.919845194168985,-1.637180458818125
154,0.2270104095849677,1.9198448772752512,-1.3500769870702134
155,0.22909906492526957,1.9198445574518148,-1.1636781430442091
156,0.22978452355101395,1.9198444518530808,-1.2432586480367744
157,0.23041410118869154,1.919844354585122,-1.4239599885256145
158,0.23279432353547255,1.9198439844419433,-1.8352770139692587
159,0.2353735335236879,1.919843579059411,-2.036418267201081
160,0.2371933516466629,1.919843290344729,-1.688313756767247
161,0.23901316976963788,1.919842999405929,-1.414455896537926
162,0.24141369304413687,1.9198426122264194,-1.181892484962389
163,0.24211286215116706,1.9198424987299518,-1.260604101018791
164,0.24275280617074996,1.9198423945597578,-1.4408254924865926
165,0.24516112997046413,1.9198420000672367,-1.8460558303591228
166,0.24776222566997302,1.919841569622476,-2.0420968985381553
167,0.2495826422980699,1.9198412656662485,-1.6915500935393895
168,0.25140305892616677,1.9198409594843624,-1.4164325104355067
169,0.2538206015708797,1.9198405494293886,-1.182052676544906
170,0.25424248010311096,1.9198404774695927,-1.1512652675966815
171,0.2546643586353422,1.9198404053902611,-1.201454585769187
172,0.25508871438735314,1.9198403327670976,-1.3328205315033694
173,0.25691629808003263,1.9198400186170106,-1.7197866286059562
174,0.2594631706126004,1.9198395770843724,-1.9817700969622132
175,0.260292316319762,1.9198394324014394,-2.0317661716123174
176,0.26112146202692366,1.919839287256772,-1.9552873268895936
177,0.2619244617691318,1.9198391462489164,-1.7751074371453928
178,0.26504684440015436,1.9198385938382794,-1.318716276713375
179,0.26607277132096036,1.9198384109025135,-1.2234234077333788
180,0.26666508215214113,1.9198383049641048,-1.1764018740332387
181,0.2672573929833219,1.919838198790062,-1.2437142006237476
182,0.26781698525459874,1.9198380982644796,-1.4063476719789783
183,0.27002950206208304,1.919837698746553,-1.808150880669532
184,0.27258009906617725,1.9198372341010386,-2.0220549309714757
185,0.2739979091787857,1.9198369739272425,-1.8955506571897203
186,0.27527858076222267,1.9198367377583294,-1.638966081300081
187,0.2779090684742125,1.919836249214424,-1.2951350884980244
188,0.2787372389376389,1.9198360944415966,-1.2202450627092636
189,0.27956540940106533,1.919835939208094,-1.156306342692553
190,0.2803578825440128,1.919835790234431,-1.384558749440091
191,0.28109658513870567,1.9198356509890062,-1.5598176566556112
192,0.28392403815883105,1.9198351146278672,-1.9344200040915078
193,0.2850853099202283,1.9198348927817583,-2.0148356369304135
194,0.28624658168162553,1.9198346700298499,-1.9125882923442945
195,0.28731906480874214,1.9198344635045628,-1.688611108702871
196,0.29133548631141853,1.9198336832083176,-1.1980989696328752
197,0.2918427625138994,1.9198335838857907,-1.1599085220584426
198,0.29235003871638027,1.9198334843904163,-1.2193376671956981
199,0.2928432153021543,1.9198333874947833,-1.3678507471928458
200,0.29489601100794466,1.9198329824216165,-1.7695321490065568
201,0.2974200622849841,1.9198324804769014,-2.00280457468567
202,0.2987821448224354,1.9198322078289987,-1.886689823747791
203,0.30001622103195696,1.9198319597280697,-1.6399331508012065
204,0.30192975448574016,1.9198315730049231,-1.3711872374795275
205,0.30384328793952337,1.9198311838221949,-1.1914334409020175
206,0.3043884847517437,1.9198310724874832,-1.1512594302451193
207,0.304933681563964,1.9198309609531077,-1.2161181304194029
208,0.30545644525866456,1.9198308538205076,-1.3732627088194957
209,0.30757235865592986,1.9198304183204973,-1.7804184567046593
210,0.31009922898024406,1.9198298942965044,-2.0079872002707986
211,0.3114958084606511,1.9198296028325852,-1.8875049573648195
212,0.3127582394637546,1.9198293382377793,-1.6358437952272378
213,0.3147624684721859,1.9198289159694066,-1.358430621016884
214,0.31676669748061725,1.9198284910026508,-1.1756731769049968
215,0.3175122264426529,1.919828332235838,-1.2605970009760927
216,0.3181859936705143,1.9198281884301114,-1.4492310396201251
217,0.3207337298771436,1.9198276418964522,-1.8640987034252354
218,0.3233546227958289,1.9198270751193898,-2.0513481235417594
219,0.3251761678250714,1.9198266784860187,-1.6976433307095034
220,0.3269962414165875,1.9198262799467707,-1.4206656308271428
221,0.32939037200908156,1.9198257523180486,-1.186095839897143
222,0.3300898717277697,1.9198255974324427,-1.2642006368649126
223,0.33073010875714853,1.9198254553808694,-1.4437661792557557
224,0.3332256473242704,1.9198248990586733,-1.8564637046561683
225,0.3358359402375025,1.9198243126779004,-2.047309794602753
226,0.33765700999065257,1.9198239008789308,-1.6949674285944119
227,0.3394773636313718,1.9198234870152908,-1.4187805815056658
228,0.34188154517306224,1.9198229370047153,-1.1843028336403476
229,0.3422680051116346,1.9198228482310478,-1.1557900994084584
230,0.3426544650502069,1.9198227593570427,-1.2013712044848217
231,0.34304967810439096,1.9198226683663158,-1.324252430617077
232,0.34496541502450717,1.91982222581506,-1.7284739321604972
233,0.3475135833546739,1.9198216333459002,-1.985745638975424
234,0.3482713676044419,1.9198214563135685,-2.0311155306368383
235,0.34902915185420985,1.9198212788954427,-1.9612459729697622
236,0.34977315359140326,1.919821104328848,-1.7921496231653096
237,0.35271667044834626,1.9198204100394953,-1.3462333050771957
238,0.3538334433791891,1.9198201451022716,-1.2379461180805003
239,0.35495021631003193,1.9198198793271253,-1.1507021608127785
240,0.3557751345674859,1.91981968247093,-1.389162105536275
241,0.35652426566028417,1.919819503304255,-1.5654450405023557
242,0.3593599484758851,1.9198188216905119,-1.9372837662128644
243,0.360525334976266,1.9198185399998984,-2.017091000861804
244,0.3616907214766469,1.919818257396799,-1.9139078295121255
245,0.3627666732333348,1.919817995671248,-1.6890382613577593
246,0.36681602714259187,1.9198170036926694,-1.195620844702261
247,0.3673199305862543,1.9198168794796155,-1.1578577943575465
248,0.3678238340299167,1.9198167550959562,-1.217053737168828
249,0.36831431110743595,1.9198166338626166,-1.3650778698335273
250,0.3703886156211045,1.919816119360516,-1.770919834812905
251,0.3729122319828662,1.9198154895147654,-2.003453946743948
252,0.3743021455382118,1.9198151407918664,-1.8849171799768243
253,0.37555885513275666,1.9198148243718272,-1.634838393942375
254,0.3775512983630248,1.919814320530532,-1.3590490643380235
255,0.37954374159329296,1.9198138140218286,-1.1770014719735347
256,0.3799506487395892,1.919813710251976,-1.1476251072740733
257,0.3803575558858855,1.9198136063708697,-1.1963226311401456
258,0.38076952874116343,1.919813501083177,-1.3246621324816545
259,0.3826643706271393,1.9198130153508801,-1.725537420924953
260,0.385212521474272,1.9198123583427922,-1.9844162250712731
261,0.38596884621395805,1.9198121624944602,-2.0299729418983294
262,0.3867251709536441,1.9198119662617577,-1.9604398845144477
263,0.3874679153605634,1.9198117731784672,-1.7917244509016852
264,0.39040747773283796,1.919811005375266,-1.346415424923228
265,0.39152436370993393,1.9198107121264552,-1.238078489589436
266,0.3926412496870299,1.9198104180394164,-1.1508004603583464
267,0.39346620105670427,1.9198102002834074,-1.3892537294027927
268,0.39421531525726106,1.9198100021493705,-1.565511963671956
269,0.39705514037665407,1.9198092476165531,-1.9376154399273668
270,0.3982210927550827,1.919808936257336,-2.0173430914589843
271,0.39938704513351136,1.9198086239845964,-1.9140287680831534
272,0.4004634670731412,1.9198083348794657,-1.689033939163675
273,0.4045137165790697,1.919807240087762,-1.1955256733865685
274,0.4050176167804435,1.9198071031113224,-1.157768533074298
275,0.4055215169818173,1.919806965964251,-1.2169708706613727
276,0.40601198123390503,1.9198068323101882,-1.3649992482648567
277,0.40813940434687584,1.9198062507049862,-1.7778819542656095
278,0.41066539993197704,1.9198055561865217,-2.0067776878474666
279,0.4120605989741179,1.9198051707405077,-1.8868120471816066
280,0.41332183461544064,1.919804821178249,-1.6355432674726018
281,0.41533516415310384,1.9198042609514532,-1.3572017004732255
282,0.41734849369076704,1.9198036980005628,-1.1740832744114418
283,0.4180941179357832,1.9198034888239115,-1.2592019196094362
284,0.41876793654334454,1.9198032994701515,-1.448065720289458
285,0.42125825688035706,1.9198025970026975,-1.8576677093126848
286,0.4238742485624046,1.9198018545972972,-2.0481762530467558
287,0.4256954667241807,1.9198013350291485,-1.6955983391464566
288,0.42751576113829787,1.9198008134970836,-1.4192232553096138
289,0.42991194381336983,1.9198001235722837,-1.1850328984991891
290,0.43061129991004576,1.919799921481551,-1.2632720800740307
291,0.43125139358288883,1.9197997362275805,-1.4429773126737921
292,0.4336366348622792,1.9197990434733276,-1.8444414143122103
293,0.4362386539535119,1.9197982833986327,-2.0413011558234833
294,0.43805899773258516,1.9197977489534903,-1.6909480182771668
295,0.4398793415116584,1.919797212281207,-1.4159577826926084
296,0.4422992100680223,1.919796495409295,-1.1815345195448748
297,0.4427209890053184,1.9197963700569651,-1.1507875658636086
298,0.44314276794261453,1.9197962445850658,-1.2009994122634098
299,0.44356703482442356,1.9197961182524164,-1.3323864787345827
300,0.4454288030790471,1.9197955624490692,-1.724636352904657
301,0.44797234442574263,1.9197947993467843,-1.9836298379013144
302,0.44880445018485576,1.9197945487580204,-2.033342784851208
303,0.4496365559439689,1.9197942977038613,-1.9562553572885863
304,0.45044206299575,1.9197940542314635,-1.7753824629973098
305,0.4535755364031945,1.9197931029603212,-1.317625817771311
306,0.4546011800425963,1.9197927901580867,-1.222496298697647
307,0.45519334548189844,1.9197926092366695,-1.1755450703262669
308,0.45578551092120057,1.919792428079549,-1.2429001697275661
309,0.4563449673001588,1.9197922567123535,-1.4055796939571639
310,0.4585699884452315,1.9197915730834403,-1.8091689882355677
311,0.46112093194378334,1.919790785221507,-2.022494510833236
312,0.4625396404271819,1.9197903451588931,-1.8957775799152705
313,0.46382107981165205,1.919789946512221,-1.6390029217190765
314,0.4664836466813974,1.9197891146771593,-1.2919184545968816
315,0.46736720650639796,1.9197888375836665,-1.212868961932369
316,0.4678347379743618,1.9197886907486552,-1.176134543166815
317,0.46830226944232567,1.9197885437667073,-1.2292429773152542
318,0.4687641123507972,1.9197883984288553,-1.3676486454299386
319,0.47076238815916377,1.9197877679369313,-1.7619950052812332
320,0.4732854655893042,1.9197869680263795,-1.9991995604524828
321,0.47399480096011776,1.9197867423696877,-2.039405456963676
322,0.47470413633093134,1.9197865163747552,-1.972517969441056
