,time,theta,torque
0,0.0,1.9198621771937625,-4.3763489352525236
1,0.0021401195260688176,1.917721947179746,-3.861141751490406
2,0.0037598403397399423,1.9161020048430906,-3.668682893984153
3,0.0053795611534110666,1.9144819504462578,-3.594177348083432
4,0.006875947182306395,1.912985158736885,-3.575954487635712
5,0.008489658928910683,1.9113709052060108,-3.570164646647807
6,0.01064827771019999,1.9092113928079852,-3.5660514405684007
7,0.013410266368089889,1.906447979281717,-3.56144615408672
8,0.01622567239307015,1.9036307961130845,-3.556848999486046
9,0.01904107841805041,1.9008132856480358,-3.552399934573307
10,0.021398774195726146,1.8984535761417578,-3.548080777214579
11,0.023756469973401882,1.896093637794352,-3.5439312382999306
12,0.026662465618238377,1.893184563653368,-3.5394978808631135
13,0.029001064765082275,1.8908432353667686,-3.535366483708266
14,0.03133966391192618,1.8885016829141656,-3.5314098125126585
15,0.034093442770567126,1.885744139451806,-3.527220701837976
16,0.036437588092869205,1.8833965453106196,-3.5232818072069865
17,0.038781733415171285,1.881048726897056,-3.51933620661362
18,0.041406004902246295,1.8784200776754145,-3.515297528580054
19,0.043760876346188624,1.876061039291645,-3.5114376330708907
20,0.04611574779013095,1.873701775518702,-3.507576830342744
21,0.04870244689122924,1.8711099922719503,-3.5036963005138855
22,0.05091463683463398,1.8688932391267956,-3.5000171374512887
23,0.05312682677803872,1.8666762878792467,-3.4963764769120558
24,0.055683097933887864,1.86411426845371,-3.492651066986007
25,0.057850354306506625,1.861941931926114,-3.489080114017948
26,0.06001761067912539,1.8597694059985226,-3.485622841054364
27,0.06250899374495685,1.8572717315716138,-3.4820216679530764
28,0.06462269794683674,1.8551524939876176,-3.478595334139998
29,0.06673640214871664,1.8530330769250714,-3.47531043039594
30,0.06916306329625171,1.8505996360291066,-3.471968647716616
31,0.0711990780170229,1.8485577509139508,-3.4686678292392346
32,0.07323509273779408,1.8465156998738805,-3.4654675729054185
33,0.0756314453565274,1.844112030292934,-3.462294455188705
34,0.07753611708394849,1.842201379324063,-3.459115313698398
35,0.07944078881136958,1.8402905836485015,-3.4561276677700454
36,0.08200449901914965,1.8377184023227973,-3.4527504261982074
37,0.08382091955734099,1.8358958215783643,-3.4497734676579768
38,0.08563734009553232,1.8340731096730045,-3.4470093712742726
39,0.08842241070873595,1.8312781382326522,-3.4436669885350715
40,0.09122371742483579,1.828466562671841,-3.422500842094773
41,0.09241129897512655,1.8272745341862684,-3.4308123209046983
42,0.09357532677340323,1.8261060935654576,-3.4341824923015047
43,0.09505190264788829,1.8246238429369281,-3.43319927466023
44,0.09700783884107066,1.822660257089487,-3.4306325736086265
45,0.09966767431642967,1.8199897767283049,-3.4266701792809267
46,0.10213273770947687,1.8175145989402555,-3.422888633345409
47,0.10456162591016036,1.8150755107937155,-3.4189372517158465
48,0.10674947148723805,1.8128782789390563,-3.4155178432591415
49,0.10872217284882636,1.810896953150821,-3.4130236526698936
50,0.1105771062263778,1.8090337709495514,-3.4111245231342133
51,0.11243159688092522,1.8071708986330692,-3.409110424908711
52,0.11440069987231632,1.8051927485635637,-3.406644882595757
53,0.11651977100993573,1.8030637718731433,-3.4037364962334755
54,0.1186974594095377,1.8008757210950008,-3.400575127137742
55,0.12079206228258522,1.798770976546264,-3.3976167567627016
56,0.1227687951478835,1.7967845158063163,-3.3949905690583466
57,0.12465164330047793,1.7948922602694113,-3.3927773977329934
58,0.12649928214681683,1.793035255842262,-3.3906643570929855
59,0.12836102486393228,1.791163941800445,-3.388460760405057
60,0.13026201872154292,1.7892530358978433,-3.3861713294189535
61,0.1322125026243998,1.7872922361309842,-3.383746590832879
62,0.13418938759690036,1.7853047451503559,-3.3811608003431166
63,0.1361361666037487,1.783347373717037,-3.3785414837753605
64,0.13800672057762756,1.7814665038975854,-3.3761196186514133
65,0.13979894094294198,1.7796642727896668,-3.3739947202078047
66,0.1415393155616015,1.7779140582799147,-3.372142204372596
67,0.14327111760073027,1.776172348778209,-3.3702989030641506
68,0.14502644998724884,1.774406856286688,-3.368324841043565
69,0.14680794258148702,1.7726149307743782,-3.3663100006607944
70,0.14861630787839875,1.7707958502166425,-3.3642104114674494
71,0.1504346617095451,1.7689665950970457,-3.3619594022299153
72,0.1522194225168964,1.7671710108139655,-3.359777857379673
73,0.15395349823961998,1.7654263018249483,-3.3576711923974165
74,0.15563123137660032,1.7637381710925377,-3.3557603229570936
75,0.15726453660063255,1.7620946399396884,-3.3539133177326854
76,0.15886194636272263,1.7604871301280294,-3.3522847799632487
77,0.160443787609966,1.7588951910018125,-3.35077823672018
78,0.16203317931966502,1.7572955567999704,-3.3492476509500153
79,0.1636474675709887,1.7556707667589415,-3.3475923256678852
80,0.1652840979321155,1.7540233876299927,-3.3458621489897014
81,0.16693010634302535,1.7523664657240923,-3.3439538177502666
82,0.16855419970077584,1.7507315028757184,-3.3420731946574644
83,0.17013899302970198,1.7491360061524708,-3.3402704257458873
84,0.1716796001860442,1.7475849023220218,-3.3385315741963884
85,0.17317486855898992,1.7460793597874422,-3.336923702670213
86,0.17463021123956432,1.7446139356067547,-3.3355481262318705
87,0.17606189599999045,1.7431722546661645,-3.334277717949259
88,0.17748636139176352,1.7417377662152698,-3.3330703380139024
89,0.17891816837093205,1.740295806877289,-3.3318447211838675
90,0.18036620971071934,1.738837418943738,-3.330538001037399
91,0.18183054416181307,1.7373625406112088,-3.3291594970186775
92,0.18330451026560868,1.7358778791974248,-3.327704582655168
93,0.18477495282170145,1.7343966848993368,-3.326133856710478
94,0.18622373891717095,1.732937225361907,-3.324402259903835
95,0.18762817064805365,1.73152237115929,-3.3226862795571557
96,0.1889750110320486,1.7301654656510428,-3.321072674514348
97,0.19026065149092805,1.7288701534870106,-3.3197851255738264
98,0.1914958357343617,1.727625618324994,-3.3188522940183836
99,0.19270189908295093,1.7264103689529526,-3.3182770820908907
100,0.1939107435399952,1.7251922622227276,-3.317854216305445
101,0.19515909065051468,1.7239342923266363,-3.3171315869034808
102,0.19646024475359172,1.7226230458553962,-3.316210770090582
103,0.19781225196806762,1.7212604842548764,-3.3150259726793783
104,0.19919286040084194,1.7198690271258725,-3.3135127584931396
105,0.2005610364755681,1.7184900292748695,-3.3116519601295993
106,0.20187285372347324,1.7171677699106989,-3.3094377920483526
107,0.2030904706115965,1.7159404028609118,-3.3070805506329135
108,0.20419105763780415,1.7148309548797267,-3.3053781852915654
109,0.20518250879108532,1.713831482503933,-3.3052380750087775
110,0.20611405753214382,1.7128923635606648,-3.306439907377021
111,0.20707031194140815,1.7119283043096905,-3.30740166086119
112,0.20814038080003702,1.7108494609900864,-3.30742893394102
113,0.20937952688876807,1.709600100353991,-3.3067082990550802
114,0.21078056735917292,1.7081874414550862,-3.3054474481754323
115,0.21225491459667642,1.706700788436403,-3.3036990566856033
116,0.21369677938238896,1.7052468102408724,-3.3007127671269405
117,0.21475121764341695,1.7041834641608784,-3.3002437897358528
118,0.21579877267503988,1.7031270182712552,-3.299978338051977
119,0.21686283138410836,1.702053886617892,-3.299649328887292
120,0.21796008773155473,1.7009472299263708,-3.2991465040769845
121,0.2190960069275891,1.6998015317520137,-3.2983900025284574
122,0.22025994653043307,1.6986275219417648,-3.2972526625316054
123,0.22142155205486724,1.6974558159639104,-3.295641543987519
124,0.2225380615163616,1.6963295507015697,-3.2935224923327393
125,0.22345345198454922,1.6954061270708938,-3.2937522519190567
126,0.22436447416560745,1.6944870790360704,-3.294332203281756
127,0.22532270299338633,1.6935203750826633,-3.2945926076730023
128,0.22636764730608608,1.6924661496641482,-3.2944202022104543
129,0.22751509553705473,1.6913084630149058,-3.293754737728586
130,0.22873967496980874,1.6900729028264934,-3.2924572190523596
131,0.22997302848573614,1.6888284334288126,-3.2900836493665158
132,0.2309305034677579,1.6878622899453295,-3.289597311792733
133,0.23188323504447997,1.686900898956512,-3.2892084671285238
134,0.23283910901386842,1.6859363030850532,-3.288871693897928
135,0.23380578734724874,1.684960769711345,-3.2884035953086563
136,0.23478358752398268,1.6839739772756108,-3.2878133887841403
137,0.23576692514435152,1.6829815606384781,-3.2870354986277643
138,0.23674263053269404,1.6819968111955266,-3.28610538252529
139,0.23769426235590493,1.681036324404978,-3.2848870318802588
140,0.2385999858489574,1.6801221418987604,-3.283656529180657
141,0.2394458637449739,1.6792683364280832,-3.2828320029403986
142,0.24023495678799622,1.6784718240696184,-3.282824873312798
143,0.24099228395629074,1.677707354542172,-3.283688535799538
144,0.24176553377457194,1.6769267902531024,-3.2848341305295112
145,0.2426201976801626,1.676064015950971,-3.285405986118976
146,0.24360733547267205,1.6750674769316092,-3.2852904022615097
147,0.24473133059292276,1.673932733206471,-3.2844457255827972
148,0.24592295500334896,1.67272966232893,-3.2825373587093862
149,0.24687359363371994,1.6717698543637303,-3.281654297395284
150,0.24782222424093098,1.670812040432318,-3.2801967495158952
151,0.24863491146256833,1.6699914594103222,-3.280006117236786
152,0.24944099714789986,1.6691775199038252,-3.280035943957088
153,0.25025574624918984,1.6683548081431048,-3.2802174874671635
154,0.25109914771495734,1.667503138127498,-3.280258443409139
155,0.25198324949822315,1.6666103405315795,-3.2799877529769272
156,0.25290269306859203,1.665681822875121,-3.2791675944833942
157,0.2538267680813468,1.6647485965797355,-3.277706350766915
158,0.2546031071684707,1.6639645448742544,-3.2776050269746726
159,0.2553779563257705,1.6631819756979243,-3.277670664174118
160,0.25616488270076193,1.6623871862765056,-3.277763344827637
161,0.2569764466364943,1.6615674891568115,-3.2776382671604707
162,0.2578146189697094,1.6607208914495757,-3.277324180575689
163,0.25867267322388027,1.6598541850993043,-3.2766249121100635
164,0.2595281668255502,1.6589900381678502,-3.27534785165709
165,0.26025421387779063,1.6582566259552645,-3.2754290948474916
166,0.2609799807831836,1.6575234772963263,-3.2757867234503686
167,0.2617273078557777,1.6567685288785858,-3.276132857834111
168,0.26251648337793093,1.6559712828733064,-3.2761868467217994
169,0.2633529940000645,1.6551261926213727,-3.275766083045726
170,0.2642181605181238,1.6542521254245457,-3.2746342405030426
171,0.26506637011377804,1.653395162816006,-3.272390828307651
172,0.26569702979256693,1.6527579779277992,-3.2724534857783842
173,0.2663031267008167,1.6521455961472993,-3.2733065906890153
174,0.2669194288247588,1.6515228894547085,-3.2747384950793337
175,0.26760522597687175,1.650829949099498,-3.2757862428364275
176,0.26842173813006176,1.6500049096330918,-3.276030611611023
177,0.2693850608565643,1.6490314947865143,-3.2755385134484287
178,0.27043728635805486,1.647968206735151,-3.2737491117884554
179,0.2712492244682761,1.647147704471091,-3.2729673385492517
180,0.27205886290903475,1.6463295019752373,-3.271129554437712
181,0.272683400407341,1.6456983418761126,-3.271085830835494
182,0.2732896662730634,1.645085633440264,-3.2715561490686604
183,0.27389943188991234,1.6444693744281007,-3.272485529264048
184,0.27454934939520026,1.6438125208955314,-3.273470347969566
185,0.2752842278250817,1.6430697810072967,-3.273970340930014
186,0.2761307972554441,1.6422141306704496,-3.273700096736909
187,0.2770587834499401,1.6412761599581365,-3.272277600118534
188,0.27781255991697346,1.6405142500547187,-3.2718470495247587
189,0.2785663363840068,1.6397523192703398,-3.2708666535911384
190,0.27921056484804246,1.6391011050287687,-3.2709689913044726
191,0.27985479331207813,1.6384498755408732,-3.271258676650006
192,0.28052176657460776,1.6377756380178452,-3.271450338669806
193,0.2812183778158293,1.6370714222728673,-3.271357483819703
194,0.28193883775186246,1.6363430787431703,-3.270707980127781
195,0.28265583314584375,1.6356182187441195,-3.269294123044528
196,0.28322705403785353,1.6350407187180178,-3.2689269578661464
197,0.28376952015301776,1.6344922784693774,-3.2685801821902487
198,0.28427880815046674,1.6339773718988304,-3.2681082484077453
199,0.2847463897983773,1.6335046234121318,-3.2672072454026817
200,0.2851759364547598,1.6330703231412924,-3.2688287214908565
201,0.2856069697342728,1.6326345129921647,-3.270785237538254
202,0.2860986788539062,1.632137346247327,-3.2727137817190277
203,0.28676061798810587,1.6314680460415987,-3.273347151734354
204,0.2876468959664474,1.6305718870588548,-3.2733611890533085
205,0.2887366617421521,1.6294699321053405,-3.2725778608134797
206,0.2896482812346923,1.6285480825547614,-3.2715242084182603
207,0.29040958589120086,1.6277782112938635,-3.270869028057187
208,0.29117089054770945,1.6270083187800688,-3.26897179663988
209,0.29170065607264595,1.6264725647271259,-3.2691465354399334
210,0.29222869879470526,1.6259385427161956,-3.2695874803831857
211,0.29276985128243,1.625391251888841,-3.270356958518167
212,0.29334977643558147,1.6248047366805995,-3.27123530394008
213,0.2940019372845483,1.6241451501915902,-3.2716624956967
214,0.29473866912727564,1.6234000110140685,-3.271333873633096
215,0.2955269197136731,1.622602743152351,-3.269730977635465
216,0.29616001426949773,1.6219623897615039,-3.268403900367192
217,0.2966517624505847,1.6214649932429015,-3.2663218505566802
218,0.29709846897143904,1.6210131480703716,-3.2695503342984793
219,0.2975709925273574,1.6205351809260213,-3.27102788387997
220,0.2981160304748423,1.619983853849785,-3.272269447180098
221,0.2987983971479594,1.6192935980877796,-3.2727459502309615
222,0.2996398379939344,1.6184424055541353,-3.2723529327692678
223,0.300570167075854,1.6175012644483329,-3.2699715603317006
224,0.3011629981285525,1.6169015271491047,-3.26919329699817
225,0.30166785543946045,1.6163907783090956,-3.2684615862817
226,0.302138805900566,1.6159143235927373,-3.2669467174843523
227,0.3025721645795536,1.6154758928459167,-3.270181107287052
228,0.30304083940138365,1.6150017248779873,-3.271613259815501
229,0.30359130589781175,1.6144447963219344,-3.2727143539896826
230,0.3042822204302379,1.6137457552780574,-3.2730595469480153
231,0.3051194234570121,1.612898681684201,-3.272539484631676
232,0.30588735118377836,1.6121216775839724,-3.2718052963240667
233,0.3065580639240407,1.611443019829433,-3.2712114796094807
234,0.3071576133814935,1.6108363543999331,-3.270825152958201
235,0.3077571628389463,1.6102296758212817,-3.2694391289585982
236,0.30823336500242415,1.6097478018668407,-3.2673752048790337
237,0.3086697092827306,1.6093062532434788,-3.2726756530028984
238,0.3092312811367134,1.6087379731897715,-3.2736047904189456
239,0.3099449920606486,1.6080157200550673,-3.27373268155616
240,0.31078995233974055,1.6071606225874917,-3.2727560101482425
241,0.31151720535875455,1.606424623631464,-3.2710118775519206
242,0.3120305811969694,1.6059050622969897,-3.269992388709611
243,0.31251120388515957,1.6054186400127262,-3.2681831064076388
244,0.3129523443477125,1.6049721689502567,-3.2739939482566447
245,0.313576952130974,1.6043400014367133,-3.274542845505534
246,0.3143597755047405,1.6035476832773365,-3.274232454801761
247,0.3151282185035023,1.6027698981160385,-3.273352600812344
248,0.3157929554270006,1.602097062396878,-3.272044556995857
249,0.3163412266295026,1.6015420992001221,-3.2698266118385653
250,0.3168420016326002,1.6010352023267063,-3.270129962103994
251,0.3173075196506832,1.6005639852307894,-3.2710979776179863
252,0.31775160859070173,1.6001144521780386,-3.2707464502590926
253,0.3181741993978484,1.599686674115115,-3.2720711098696857
254,0.3185899545759945,1.5992658092205372,-3.271174810721792
255,0.3189902973312792,1.5988605402029967,-3.2726496738970425
256,0.31940122993875236,1.5984445449340037,-3.272894829940688
257,0.31982441869653355,1.5980161360713874,-3.273268931859046
258,0.32026768288795376,1.5975673971251079,-3.273820125671126
259,0.32074433140367925,1.597084853514452,-3.274391409726968
260,0.3212677768057412,1.5965549246787734,-3.2747418108405775
261,0.3218408082240665,1.5959747841715015,-3.2744913052376132
262,0.32243662440067716,1.5953715635131394,-3.2726936987998942
263,0.32291586077139933,1.5948863620418343,-3.270987074317984
264,0.32335836395819856,1.594438343528891,-3.28315397564279
265,0.3237937437997099,1.5939975301571994,-3.279220562484225
266,0.32429990522195135,1.5934850431403154,-3.2790258698686463
267,0.3248387135927334,1.592939490890063,-3.277741650716622
268,0.3256131876695822,1.5921553046907293,-3.2777457888776076
269,0.326526548985453,1.5912304614022923,-3.275653179722621
270,0.32710603575286573,1.590643674037997,-3.273413376323656
271,0.3275836691654302,1.5901600139980632,-3.2733503170138465
272,0.3280339681250555,1.5897040256810886,-3.2748576934467026
273,0.328474153564267,1.5892582715088346,-3.273259995649798
274,0.32889077376313824,1.5888363741825593,-3.277336082023483
275,0.3294024476703481,1.5883182104753208,-3.2780607337932537
276,0.3300264555268779,1.5876862750924081,-3.2779822254738304
277,0.3307332915382639,1.5869704421098867,-3.2762942932800385
278,0.33123842104762213,1.5864588718761765,-3.2743871497573953
279,0.33171188749636826,1.5859793599713048,-3.2746906109696226
280,0.3321620699818619,1.585523421742743,-3.2752064860382615
281,0.33259678929952413,1.5850831373638925,-3.2751086699912895
282,0.33301700701448594,1.584657533674264,-3.2759811420038343
283,0.3334324236949732,1.5842367862195383,-3.2752371002748486
284,0.33383585120402115,1.583828175757862,-3.27673966860159
285,0.33424307477290693,1.5834157144429248,-3.275255338814153
286,0.3346379099352377,1.5830157950974202,-3.277472525671172
287,0.33506888958162157,1.582579259350543,-3.2778622028113675
288,0.3355410491771344,1.582101004989041,-3.2781085695381065
289,0.3360564182124243,1.5815789741404631,-3.277637944474303
290,0.3365828633438844,1.5810457140145777,-3.2753021838371668
291,0.3370728981573759,1.5805493264630608,-3.2760034478784523
292,0.33753933602549957,1.5800768336261513,-3.2754783449951823
293,0.33798130141937777,1.5796291236254079,-3.278135161562785
294,0.3384551179475658,1.5791491405776703,-3.2775789866744742
295,0.3389191334426743,1.5786790781805968,-3.274277114273502
296,0.33934776225988217,1.578244856633093,-3.2855636573951874
297,0.3397798308090639,1.5778071436828291,-3.2812441495097557
298,0.3407898966236716,1.5767838561179324,-3.2802568425471943
299,0.3415049860525626,1.5760593836679413,-3.2785152884243525
300,0.34201283728957943,1.575544857350733,-3.2760503025526773
301,0.34248763182610537,1.5750638137179052,-3.2784874498375194
302,0.34296991710860664,1.574575172331543,-3.27582113875517
303,0.3434212092560916,1.5741179248629753,-3.2871888470846233
304,0.34386586452420215,1.5736673945833017,-3.2814819975782648
305,0.3444637042103342,1.5730616445652623,-3.2816427339423546
306,0.3452653949663731,1.5722493257529027,-3.281132339993618
307,0.3460347925093628,1.5714697062228362,-3.2789108871175974
308,0.3465283708396531,1.5709695589934094,-3.27534396472421
309,0.3469827033014136,1.5705091720991247,-3.2867514081160296
310,0.34743452803160696,1.5700513188859408,-3.281878269647058
311,0.3480685650061776,1.5694088097027912,-3.282019172616575
312,0.3489107553841836,1.5685553430371668,-3.281264233798773
313,0.3495981872282663,1.5678586878376812,-3.2799078536148176
314,0.35018557265624317,1.567263407743825,-3.2762863404297207
315,0.35072071755502776,1.5667210593693577,-3.281704754835527
316,0.3514868135868543,1.5659446329122397,-3.2798437705193613
317,0.35202384518432867,1.5654003469604567,-3.2770028740349115
318,0.35252371246168973,1.5648937179155196,-3.279521583271495
319,0.35302775613511167,1.5643828467641325,-3.275532300144125
320,0.3534893339023873,1.563915008623712,-3.2877722572779566
321,0.3539454603986711,1.5634526880596067,-3.282740607340386
322,0.3546623892900118,1.562726008155204,-3.2827559889418056
323,0.3562629213211948,1.5611036395860318,-3.2818210790472238
