,time,theta,torque
0,0.0,1.9198621771937625,-135.0844310926892
1,0.0005109380780777407,1.9198621771061295,-81.25340056207362
2,0.0010005740670122913,1.9198621768576927,-54.93103305167051
3,0.0016486263601852673,1.919862176281383,-35.91583882314552
4,0.002464467200473725,1.919862175154951,-23.252331968164086
5,0.0035023435159074754,1.9198621730761214,-14.859233950755668
6,0.004820503175585107,1.9198621693933824,-9.396408069336744
7,0.006489004545236677,1.9198621630590433,-5.90394395397535
8,0.008584919297101413,1.9198621524535473,-3.7186593716746335
9,0.01118743044552983,1.9198621351799825,-2.388589840144702
10,0.014372553488190207,1.9198621078513476,-1.609790325523333
11,0.018212892258226525,1.9198620658440797,-1.1783554279842343
12,0.022789808703061566,1.9198620028475226,-0.9564083514455795
13,0.028220697784742454,1.9198619098519811,-0.8512058162467708
14,0.031157044310311716,1.9198618513241092,-0.823823749582281
15,0.03187786379617702,1.9198618360716637,-0.9535095808581237
16,0.03252936470586526,1.9198618219858639,-1.1878400354286753
17,0.03511334670677428,1.9198617633123014,-1.763696001950737
18,0.03782504421359651,1.9198616969181934,-2.0128595516759056
19,0.04103572176438563,1.919861611923856,-2.133487154531626
20,0.04510185465418326,1.9198614943510786,-2.1880747153796145
21,0.050140571336081886,1.9198613332556205,-2.2075748909155464
22,0.056461762137085175,1.9198611070522875,-2.214257853333406
23,0.0598423109413103,1.9198609750699034,-2.216543526249875
24,0.06148656310266716,1.9198609081020048,-2.2176280269745714
25,0.06232413335231113,1.919860873291236,-2.218184069358548
26,0.0631617036019551,1.9198608380094753,-2.1037371548993495
27,0.06397874661223153,1.9198608031385842,-1.8940149995567646
28,0.06822509971319195,1.9198606146891424,-1.2597548775152714
29,0.07242883466139882,1.919860416206583,-1.0022652764905602
30,0.0776489943761923,1.9198601532185153,-0.8741251273531222
31,0.08381181830424733,1.9198598191901477,-0.8212224439946634
32,0.09127677064790986,1.9198593804349242,-0.7985405244274013
33,0.0926669631447537,1.919859294593284,-0.7957731553045428
34,0.09405715564159754,1.919859207454069,-0.7932160763691082
35,0.09482637867373535,1.9198591586804665,-1.0705413765983693
36,0.09559560170587315,1.919859109509592,-1.3229944518911985
37,0.09821030496121429,1.9198589394002108,-1.8219556288705312
38,0.10076510641192238,1.9198587687543192,-2.0296513242036
39,0.10411593867090192,1.919858538295019,-2.1429167027633755
40,0.10827286231183054,1.9198582419183006,-2.1916396229392197
41,0.11344363818671573,1.91985785706519,-2.208678335930909
42,0.11994497192604375,1.9198573477055831,-2.2147215479828897
43,0.1284714359333467,1.9198566366670435,-1.4164447982677868
44,0.1332573219839767,1.9198562161737196,-1.0394856214687487
45,0.13804320803460668,1.9198557803013219,-0.8948733996217658
46,0.14402092270560132,1.919855214282778,-0.829237562895906
47,0.15113727917019237,1.9198545091648669,-0.8032004018323897
48,0.15446429641605341,1.9198541678453374,-0.7965271870855486
49,0.15582821431313956,1.919854025772642,-0.7941421103919295
50,0.15656333924913413,1.919853948680199,-0.7929097472934941
51,0.15692826876141563,1.9198539102753185,-0.7923093271642454
52,0.15729319827369714,1.9198538717810165,-0.8606881074124679
53,0.15766553241563572,1.9198538324134817,-1.005474338416788
54,0.16000269746808374,1.9198535831749226,-1.643716153526545
55,0.16310255342718155,1.919853246943481,-1.9884496195899726
56,0.1660803626019134,1.919852917873875,-2.1179059811398866
57,0.17002704724295808,1.919852472561161,-2.182093535750235
58,0.1748740946119906,1.9198519113481525,-2.205565429262098
59,0.18094290604527205,1.919851186432012,-2.2133569901195473
60,0.18407038540911866,1.9198508031998578,-2.215566818470481
61,0.18719786477296527,1.9198504133996797,-2.2175979248328974
62,0.1879836072867911,1.9198503144345924,-2.2181197631223633
63,0.1887693498006169,1.9198502150549237,-2.1104634651584324
64,0.1895432632000894,1.9198501167661184,-1.9096531788500941
65,0.19373052968894966,1.9198495779986224,-1.2712837147863745
66,0.1979177961778099,1.9198490274573397,-1.0077980936792739
67,0.20310926417825734,1.919848328535796,-0.8765099773921611
68,0.20923904579822247,1.919847479989168,-0.8221367283638382
69,0.2166587047888042,1.9198464191289715,-0.7989884852571306
70,0.218156596936397,1.9198462004757821,-0.7959762398907195
71,0.2196544890839898,1.9198459803158427,-0.7932144415504473
72,0.22034270615579335,1.9198458786566286,-0.9207348590132272
73,0.2209691805504477,1.919845785841111,-1.1508881777778417
74,0.22362961125185513,1.9198453887478855,-1.759125695652519
75,0.2264037962138441,1.919844969613366,-2.0144371562151613
76,0.22960421625008734,1.9198444796610135,-2.133803604037091
77,0.233680464027792,1.9198438456682454,-2.18817055241121
78,0.23872472900610828,1.9198430456679882,-2.2075386580456193
79,0.24506090051700913,1.9198420165628836,-2.214207316995089
80,0.2532975403976364,1.9198406384819249,-1.4328572186701172
81,0.25804697317617,1.9198398231378748,-1.0468252099278927
82,0.26279640595470355,1.9198389926438761,-0.8980776632505955
83,0.26873663443136286,1.9198379326011523,-0.830428535190501
84,0.27580216463033475,1.9198366408868677,-0.8040921626928927
85,0.2788639922812946,1.91983607071262,-0.7979723508624066
86,0.28192581993225446,1.919835494241613,-0.7928628308923651
87,0.2824180859140877,1.919835400971799,-0.7920841935632139
88,0.2829103518959209,1.9198353075392205,-0.883972876924792
89,0.28338599103296386,1.9198352171078223,-1.0649791482809656
90,0.28638919660154216,1.9198346426114037,-1.772607670453297
91,0.2892781350302489,1.9198340842569173,-2.0262967899499977
92,0.29250747807968186,1.9198334534756658,-2.1390759662079417
93,0.2966496462901702,1.9198326341392014,-2.1902616463765847
94,0.30176463048644386,1.9198316064732794,-2.2081579400888414
95,0.30819400129736807,1.919830289801641,-2.2144173729686285
96,0.31659934288040315,1.9198285265909416,-1.4231284725322568
97,0.32137843237379726,1.9198275029052678,-1.0420019646757892
98,0.3261575218671914,1.919826463876612,-0.8957588145112462
99,0.3321210154200036,1.9198251458267144,-0.8294997375421452
100,0.33922062432323513,1.9198235455207007,-0.8034139756683734
101,0.34254404097858654,1.9198227847614535,-0.7967966349448827
102,0.3440179230542115,1.9198224450018018,-0.7942493772220068
103,0.3454918051298365,1.9198221037827223,-0.7918450225266246
104,0.34626270572103673,1.9198219247298896,-1.0698931418834188
105,0.34703360631223695,1.919821745277795,-1.3229069001316156
106,0.3496521125972272,1.9198211327542667,-1.822207887850686
107,0.3522071242892069,1.9198205306431204,-2.029648933852169
108,0.35555883058440646,1.9198197341333352,-2.1427922046255756
109,0.3597150520723706,1.9198187359535466,-2.1914601514870977
110,0.36488793939552483,1.9198174773943002,-2.208516742879112
111,0.3713958989427617,1.91981586847524,-2.214591667152138
112,0.379911384002739,1.919813720270158,-1.416996133170233
113,0.38469654890654537,1.919812491731998,-1.03965987890324
114,0.38948171381035174,1.9198112478078633,-0.8948592418618314
115,0.39545781068440683,1.9198096726889757,-0.8290788227047858
116,0.4025721250429203,1.9198077662800215,-0.8029150910904772
117,0.4058981376455077,1.919806863347567,-0.7961994093955312
118,0.4079491124292293,1.9198063028517693,-0.7926490741272642
119,0.4086473460830943,1.9198061113916425,-0.922061153223039
120,0.4092812811412816,1.91980593727884,-1.1546065139536494
121,0.41193995953246815,1.9198052041207474,-1.7603985253818133
122,0.41470750199613565,1.9198044358962594,-2.0145767472583724
123,0.417910278143562,1.9198035404328413,-2.1338710832432084
124,0.42198697372952076,1.919802390658627,-2.188119153318464
125,0.4270324176219452,1.9198009521968555,-2.2073976661059316
126,0.4333683309511261,1.9197991215886732,-2.213983421878016
127,0.43675273742538634,1.9197981326915963,-2.2162456350447033
128,0.4383984140984833,1.919797649055952,-2.217319825122908
129,0.4392365598586237,1.9197974020399433,-2.217872483016938
130,0.4400747056187641,1.9197971545517818,-2.103341491943056
131,0.44089220947692376,1.9197969127039174,-1.8935120509175951
132,0.44513543282516305,1.919795650185048,-1.2595904903433601
133,0.44933940411525386,1.9197943874107968,-1.0019486868001009
134,0.4545592075213265,1.9197928029728026,-0.8737672976125562
135,0.4607217858655052,1.9197909087869145,-0.8208778008255826
136,0.468186511715858,1.9197885801721621,-0.7982381329687601
137,0.4696880564858723,1.9197881072415117,-0.7952667601844807
138,0.4711896012558866,1.9197876327952454,-0.7925335185264005
139,0.47196100289196785,1.9197873884645187,-1.0706412787566548
140,0.4727324045280491,1.9197871437337743,-1.323630044700756
141,0.47534094920507447,1.9197863131974244,-1.821277110183482
142,0.4778952188221454,1.9197854955092448,-2.0291119705287226
143,0.48124609110007704,1.919784416156762,-2.1424877500787924
144,0.4854016188812821,1.9197830671309686,-2.191263000645944
145,0.4905703742235771,1.9197813729767415,-2.208365449935723
146,0.49706978663400236,1.9197792171829033,-2.2144568757640237
147,0.5055718805509993,1.919776354242797,-1.417633799570717
148,0.5103562646349714,1.9197747218103383,-1.039832426637594
149,0.5151406487189435,1.9197730739869752,-0.8948375606757343
150,0.5211150905574861,1.9197709946773147,-0.8289628404314756
151,0.5282273985429528,1.9197684880579753,-0.8027603655109797
152,0.5315527159557873,1.9197673044332662,-0.7960380131200099
153,0.5336034076886119,1.9197665707963492,-0.7924850597312642
154,0.534301584779647,1.9197663203775321,-0.9218865246328425
155,0.5349354870075631,1.9197660927285947,-1.1544250286058235
156,0.5376137220926531,1.919765127929822,-1.762932560790381
157,0.5403801784417972,1.9197641262858434,-2.015492564392859
158,0.5435885939899006,1.9197629581769426,-2.134269272070966
159,0.5476701258496977,1.9197614621818406,-2.188181989056722
160,0.5527219759383554,1.919759595022664,-2.207315859815887
161,0.5590598743519506,1.919757228266438,-2.213858881717554
162,0.5624510236556286,1.919755950817345,-2.216121608315136
163,0.564099233945362,1.9197553271417604,-2.2171990110793214
164,0.5649384304550482,1.9197550088914637,-2.217752814604072
165,0.5657776269647344,1.919754690167486,-2.1030842318836585
166,0.5665959981857066,1.919754378896685,-1.8930768974006478
167,0.5708341526326252,1.9197527596903357,-1.2597968264021158
168,0.5750385876094855,1.9197511414287507,-1.001931944238078
169,0.5802574852853841,1.9197491161663842,-0.8736618011315993
170,0.5864193221605041,1.9197467013980098,-0.8207056280904733
171,0.5938827593556086,1.9197437423403008,-0.7980205037723412
172,0.5953840799120906,1.9197431425788734,-0.7950431607917204
173,0.5968854004685726,1.919742541301117,-0.7923050489400923
174,0.5976567844078631,1.9197422317727246,-1.070406552592533
175,0.5984281683471535,1.919741921844024,-1.323396686995785
176,0.6009819519900791,1.9197408929215678,-1.8147561488770356
177,0.6035341356212993,1.9197398602602365,-2.025981396317067
178,0.6068692130625408,1.919738504220578,-2.1408849731337263
179,0.6110069371142082,1.9197368114239708,-2.1905473363628905
180,0.6161582472305714,1.9197346878588604,-2.2080402953749005
181,0.6226287155130116,1.9197319951886391,-2.2142227860479085
182,0.6310856771624053,1.9197284333720541,-1.4199839363580498
183,0.6358674228511199,1.91972639814659,-1.0406248922291055
184,0.6406491685398344,1.9197243475344905,-0.8950185169604195
185,0.6466183873629126,1.9197217660909027,-0.8289117346413337
186,0.6537244774219282,1.9197186617318547,-0.8026975835000388
187,0.6570483288276556,1.9197171980117387,-0.7959985903656521
188,0.6584111193655924,1.9197165957321407,-0.7936075600565203
189,0.6591457463884546,1.9197162705482713,-0.7923724860633194
190,0.6595429068417693,1.9197160945932705,-0.7917176834317498
191,0.659940067295084,1.9197159185321053,-0.8660589236720014
192,0.6603390296377055,1.9197157415652746,-1.0203605482204416
193,0.6632366753416424,1.919714453048414,-1.7405718030930484
194,0.6661732775202128,1.9197131414427029,-2.015803531832971
195,0.6693357442385452,1.919711722465466,-2.133234031740564
196,0.6734219999442941,1.9197098790217377,-2.1877494556212898
197,0.6784626538402506,1.9197075895340368,-2.2070657834775655
198,0.6848012527072005,1.9197046862372447,-2.2136958606468666
199,0.6930481863516424,1.919700868370061,-1.4316389304435628
200,0.6977970023600375,1.919698649161274,-1.0459617885732968
201,0.7025458183684326,1.9196964147698576,-0.8973272698098965
202,0.7084874943614152,1.9196935977362484,-0.8297284471353067
203,0.7155542501273279,1.9196902163383995,-0.8034527743969715
204,0.7186162583618194,1.9196887407452707,-0.7973542492475733
205,0.721678266596311,1.9196872588387557,-0.7922598278424804
206,0.7222345653942108,1.9196869889315933,-0.7913829075437228
207,0.7227908641921107,1.91968671881604,-0.8950148993496089
208,0.7233166967069653,1.9196864633020612,-1.0929188370352925
209,0.7260504245278311,1.9196851319213128,-1.7458497481159578
210,0.7289163875388291,1.9196837307357775,-2.013921751217877
211,0.7320888718680792,1.9196821732399056,-2.1326709135397577
212,0.7361641522358584,1.9196801625807682,-2.187441854025741
213,0.7411974765856068,1.919677663804522,-2.2068959711313734
214,0.747515644624893,1.919674503020446,-2.2135334736800596
215,0.7508897682166565,1.9196728040376798,-2.2157996395302506
216,0.752531521317569,1.9196719745874655,-2.216875872181666
217,0.7534661918898683,1.9196715015600894,-2.2174937338629723
218,0.7544008624621676,1.919671027944284,-2.0904127368342142
219,0.7552981402032091,1.919670572722562,-1.864657269738899
220,0.759528314740136,1.919668419295779,-1.2491439179332713
221,0.763758489277063,1.9196662538154017,-0.9962291790384369
222,0.7690030439825968,1.9196635523244334,-0.871009039178297
223,0.7751979477787253,1.9196603374351577,-0.8193925002169717
224,0.7827054733322616,1.9196564066997057,-0.7970929458469317
225,0.784571010596546,1.9196554240650228,-0.7934685481359286
226,0.7850547431502007,1.9196551688856858,-0.7925849177955903
227,0.7855384757038555,1.9196549135486933,-0.8828023504264089
228,0.7860073393810346,1.919654665909738,-1.061398953211561
229,0.7888661331274927,1.919653152780593,-1.751075235570619
230,0.7917249268739507,1.919651634144912,-2.0155920633318876
231,0.7949082651196115,1.9196499366262598,-2.1335276329837156
232,0.7989937280690985,1.9196477480437288,-2.187718292945032
233,0.8040406568310875,1.9196450288752318,-2.206911596028504
234,0.8103747395307264,1.9196415919289869,-2.213469246656675
235,0.8137644632145143,1.9196397415196795,-2.215730838578514
236,0.8154121068463531,1.919638839294174,-2.2168062565054876
237,0.8162510493567264,1.9196383791986025,-2.2173601777457557
238,0.8170899918670997,1.9196379186286947,-2.1027196679028037
239,0.8179081339548822,1.9196374690211377,-1.892749968592234
240,0.8221471564208296,1.9196351322549452,-1.2593014559407645
241,0.8263516137014835,1.9196328025796536,-1.0014355507254542
242,0.8315708032430676,1.9196298940695955,-0.8731565815744717
243,0.8377329251045667,1.9196264364531739,-0.8202006470064283
244,0.8451967010773744,1.919622214190874,-0.7975187832046684
245,0.8466978628908941,1.9196213604467356,-0.794542190301186
246,0.8481990247044138,1.9196205051834403,-0.79180450169513
247,0.8489703103027874,1.9196200651648323,-1.0698811600533842
248,0.8497415959011609,1.9196196247451844,-1.322871128227042
249,0.8523465902669757,1.9196181342761278,-1.8202416068637488
250,0.8549010895541957,1.9196166682554738,-2.0283500191223256
251,0.8582498690002242,1.9196147397354817,-2.1418077778476055
252,0.8624026668715564,1.919612337689651,-2.190647832600233
253,0.867569880519292,1.919609332654005,-2.207787682447797
254,0.8740653700428133,1.9196055296086763,-2.213887065522457
255,0.8825659270328742,1.9196005096365267,-1.4170977757356573
256,0.8873505899891817,1.919597662638552,-1.039173885369777
257,0.8921352529454892,1.9195948002013674,-0.8941252635003464
258,0.8981097838413128,1.9195912042455816,-0.8282195470335196
259,0.9052221780709829,1.9195868920413608,-0.8019963364937002
260,0.9085466903530549,1.9195848647062939,-0.7952687635134708
261,0.9105971991302119,1.9195836105594672,-0.7917124646497298
262,0.9112952837038145,1.9195831829448322,-0.9211007102847336
263,0.9119290968446052,1.9195827944152044,-1.1536279997902026
264,0.9145571278840785,1.919581180531833,-1.7553362065793707
265,0.9173276283886821,1.9195794741126015,-2.0122163948674427
266,0.920520623006412,1.9195775010460556,-2.132277657268819
267,0.9245858434174757,1.9195749790466807,-2.187027973662513
268,0.9296190770260567,1.9195718410588862,-2.2065340730630423
269,0.9359363987624351,1.9195678783117454,-2.213168753648064
270,0.9393062619837635,1.919565753441285,-2.2154213390779307
271,0.9409463668367379,1.9195647164993668,-2.216490755635671
272,0.9418802749436188,1.9195641252330993,-2.2171058955703926
273,0.9428141830504997,1.9195635333782894,-2.090114068328577
274,0.943710809093458,1.919562964596836,-1.8644705428091706
275,0.9479408321767756,1.9195602739330355,-1.2487820075922123
276,0.9521708552600933,1.9195575711943442,-0.9957926784081396
277,0.9574154260667267,1.9195542034515027,-0.8705479405188051
278,0.9636103370334679,1.9195502015441206,-0.8189585474423889
279,0.9711180080106021,1.9195453168771017,-0.7967092658823649
280,0.9725112139054086,1.9195444062394351,-0.7939725077656979
281,0.9732587181601892,1.9195439171100321,-0.7925881128573498
282,0.9736614816304109,1.9195436534053947,-0.791862360505699
283,0.9740642451006326,1.9195433895912557,-0.8671852063820583
284,0.9744677986402168,1.919543125149789,-1.023064457154849
285,0.9770493717792246,1.9195414308897387,-1.6928819909262252
286,0.9800215371296747,1.9195394747166012,-1.9988251573227507
287,0.9830906253988062,1.919537448493945,-2.1239138404707245
288,0.9870902281844678,1.9195347983992193,-2.1837675875066873
289,0.9920197948256769,1.9195315172616771,-2.205395129049183
290,0.9982034447587278,1.9195273782028972,-2.212626141679279
291,1.0013852729979016,1.91952523836903,-2.2148096759901374
292,1.0045671012370754,1.9195230916990562,-2.216866795647622
293,1.0065208643304797,1.9195217701746856,-2.1512641529872663
294,1.008474627423884,1.919520446072661,-1.6918236718547286
295,1.0125771454749095,1.9195176573297523,-1.1899543342651548
296,1.017033225078006,1.9195146153708627,-0.9636750880346684
297,1.0224317731037813,1.9195109120676979,-0.8570406893659245
298,1.0288496256604387,1.9195064839307905,-0.8129126066726836
299,1.0366487569207028,1.9195010653034268,-0.7924069188470745
300,1.0374560640382529,1.9195005020614029,-1.082967855350905
301,1.038263371155803,1.9194999383791136,-1.3437608827394087
302,1.040903571083451,1.919498091850242,-1.8323351956030414
303,1.0434556469192802,1.919496302478607,-2.0334719182614402
304,1.0468374292617089,1.9194939245852463,-2.144148885075415
305,1.0510216679057767,1.9194909717523614,-2.1913028395544867
306,1.056231227464002,1.9194872788148358,-2.207733338017156
307,1.062786593917926,1.9194826058105188,-2.2136651417529047
308,1.0714004102979355,1.9194764212897617,-1.4103502496219826
309,1.0761932281198323,1.9194729584461268,-1.0361550951440157
310,1.080986045941729,1.9194694800778755,-0.8925985204271134
311,1.0869743370765408,1.9194651122822768,-0.8272822281491438
312,1.0941034819326112,1.9194598807552175,-0.8011021164160613
313,1.097430865908273,1.9194574272864258,-0.7943252780945943
314,1.0994824260613363,1.9194559108249087,-0.7907394831026097
315,1.1002579843282778,1.9194553368106777,-1.0703855776535918
316,1.1010335425952193,1.9194547623898188,-1.3244431492276971
317,1.1036612102638794,1.919452813172684,-1.823166016918369
318,1.1062158442661665,1.9194509136571385,-2.0294056857663776
319,1.1095722824481413,1.9194484112477994,-2.142047058620922
320,1.1137334179843792,1.9194452983173194,-2.190423221279479
321,1.118913319566359,1.9194414068936392,-2.207358748182001
322,1.1254272441691107,1.9194364875255014,-2.213401797657092
323,1.1339462968453735,1.9194300105657303,-1.415487787894511
324,1.1387323024290732,1.9194263502752678,-1.03812706008108
325,1.1435183080127729,1.9194226744921192,-0.8932944242996852
