,time,theta,torque
0,0.0,1.9198621771937625,-135.0844310926892
1,0.0005104040527783717,1.9198621771063127,-81.42685593829461
2,0.0010028237145111355,1.9198621768561799,-55.21693164684165
3,0.0017124537779296732,1.919862176209369,-35.326507222587374
4,0.002583888685628041,1.9198621749525728,-23.063024042932344
5,0.0037038083428929175,1.9198621725887794,-15.12598836293075
6,0.005018128696974178,1.9198621687406896,-10.214782519719073
7,0.006439883949375738,1.919862163272228,-6.94633801299405
8,0.007858072619913739,1.9198621564654899,-4.514907340825746
9,0.009249853815847696,1.9198621484726812,-2.6383979615547104
10,0.010831217677700095,1.9198621378128633,-1.2957417465718442
11,0.012571940185361218,1.9198621241376177,-0.8358373850254076
12,0.014002566384228083,1.919862111375506,-1.1061816880751296
13,0.01534818760340405,1.9198620981176506,-1.8070908242981167
14,0.016517432050423296,1.9198620856104849,-2.3855165215052474
15,0.017617474685272794,1.9198620730055824,-2.4709143110131646
16,0.018984480411977707,1.9198620562095807,-2.198198010011869
17,0.020412584323568628,1.9198620373229274,-1.5413773362746168
18,0.021823504868319268,1.919862017318891,-0.7200296687474318
19,0.023430617762196286,1.9198619929050578,-0.0540148384941125
20,0.025173310484376033,1.9198619644719919,-0.0
21,0.026815809445230106,1.919861935807177,-0.5344176610672494
22,0.028305773272300955,1.919861908237667,-1.4688657347555698
23,0.029234831414263668,1.9198618902924374,-1.9887161175167083
24,0.03016388955622638,1.9198618717677138,-2.1782253804689833
25,0.0318469034245914,1.9198618367339504,-1.8982391370454539
26,0.03345696682182936,1.9198618014389006,-1.1405757874833153
27,0.03498920192879093,1.919861766233723,-0.33175191724599984
28,0.036950487573596084,1.9198617188704725,-0.0
29,0.038436763150511616,1.9198616812582114,-0.04395049757485451
30,0.03982138494349596,1.9198616448840478,-0.7410322291608565
31,0.041243101181842816,1.919861606196078,-1.652373723231689
32,0.043253550999943643,1.919861549171085,-2.149408286175529
33,0.045148570312655886,1.9198614929357913,-1.5962376439469776
34,0.046909187590306274,1.9198614385283714,-0.6497501028340738
35,0.04867000550472325,1.9198613820332788,-0.0
36,0.050318784900530794,1.9198613272457612,-0.0
37,0.05190308870226945,1.9198612728812494,-0.45607330894483605
38,0.053357234059815746,1.9198612214998605,-1.3709286632331514
39,0.05464533767522599,1.9198611747997036,-2.0704247697646547
40,0.05593344129063623,1.9198611269855854,-2.1272727239132947
41,0.05740923164944575,1.9198610708353205,-1.7211313767639271
42,0.058858805998895945,1.919861014259004,-0.9798218910931433
43,0.060331210966500896,1.9198609553473618,-0.2366970288078814
44,0.062340179266354864,1.9198608726197435,-0.0
45,0.06386158046071785,1.9198608081666901,-0.15688279134754182
46,0.06538298165508084,1.919860742159609,-1.016355968773143
47,0.06696754981511004,1.9198606717598325,-1.9657986884107772
48,0.06970549567453692,1.9198605461445046,-1.8428276120750489
49,0.07172635106873929,1.9198604502005459,-0.8263076171040166
50,0.07358116051458898,1.9198603597267565,-0.019996036589800564
51,0.07536588757445635,1.91986027049091,-0.0
52,0.0768801939149968,1.919860193098974,-0.377444975665096
53,0.07839450025553725,1.9198601141674545,-1.313293626234778
54,0.07942705738124262,1.9198600594637647,-1.9203840091347126
55,0.08045961450694798,1.919860004044253,-2.1588035374201175
56,0.08203848166380011,1.9198599179190246,-1.9084413067058859
57,0.08358893760601145,1.9198598317148299,-1.2042621084875935
58,0.0850807252629483,1.9198597472490235,-0.40407364385786176
59,0.08700812464846171,1.919859635906352,-0.0
60,0.0884503509502068,1.9198595509599092,-0.0
61,0.08977598918597182,1.919859471648704,-0.5495625998213004
62,0.09112024425161697,1.9198593900188456,-1.4078114226460394
63,0.09212673829318853,1.9198593281052458,-1.9731078614447415
64,0.09313323233476009,1.9198592655114959,-2.1486492441759095
65,0.09473132959202277,1.9198591647286902,-1.8589096697053242
66,0.09628152549558941,1.9198590653283654,-1.1300234345878675
67,0.09778129131037393,1.9198589676260966,-0.33954924495583544
68,0.0996918816184081,1.919858840973289,-0.0
69,0.10097565019077703,1.9198587544957624,-0.0
70,0.10221988915832472,1.9198586696250997,-0.47872135579983677
71,0.10350011873051834,1.9198585812145221,-1.2865349644275441
72,0.10507514036132425,1.91985847093639,-2.1096375497806887
73,0.10655107917245125,1.919858366084037,-2.0703411698291414
74,0.10812414311047218,1.9198582527216657,-1.5166538796343818
75,0.10961743034515926,1.9198581435711952,-0.7074073489676519
76,0.1112100701065814,1.919858025508717,-0.030192799816566356
77,0.11301954286457198,1.919857889305766,-0.0
78,0.11454617842616077,1.9198577726828132,-0.3536690991066597
79,0.11607281398774956,1.9198576544950394,-1.294003361964201
80,0.11727586400676908,1.9198575602558807,-1.9820140987291013
81,0.11839216299053694,1.9198574719430526,-2.1459927302522703
82,0.11983593359959459,1.9198573564823944,-1.867494449782984
83,0.12128991690554719,1.9198572387905595,-1.1968442613221035
84,0.1227285695858132,1.9198571209425852,-0.42380524136409237
85,0.1245824805364895,1.9198569670292807,-0.0
86,0.12596713861539452,1.9198568505683118,-0.0
87,0.12731833978443596,1.919856735680304,-0.4596831530669715
88,0.12864953281323935,1.9198566212947517,-1.2974149338641832
89,0.12970238719643848,1.9198565299833648,-1.9174596668370532
90,0.1307552415796376,1.9198564379276921,-2.1541440402781338
91,0.1324198769816756,1.9198562908626624,-1.8669425184732398
92,0.1340137764772867,1.9198561483032706,-1.114949842408779
93,0.1355393803240128,1.9198560102545559,-0.3157972137328999
94,0.13752772127977103,1.9198558279880757,-0.0
95,0.13902186917185855,1.9198556892762229,-0.05755826322445492
96,0.14046361614255254,1.9198555540080533,-0.8060156712840945
97,0.14193716811437654,1.9198554143136504,-1.7429277923294078
98,0.14410967617557296,1.9198552056981184,-2.111291096380014
99,0.1459729270094229,1.9198550242545513,-1.4553091822960977
100,0.1476914172877856,1.9198548548413295,-0.5211131375065972
101,0.14953971566925578,1.919854670418015,-0.0
102,0.15098105986617405,1.9198545250087573,-0.0
103,0.15239246211068155,1.9198543812684101,-0.4385956591322247
104,0.15374579218078513,1.9198542421860996,-1.2834621591749562
105,0.15475343007332348,1.9198541378320202,-1.8860122377786404
106,0.15576106796586184,1.9198540327961833,-2.155422295994764
107,0.1570830540607768,1.919853893958833,-2.00820762037231
108,0.1584950027738578,1.9198537443774626,-1.4612662193025643
109,0.1598951801318807,1.9198535947212056,-0.6981454533005719
110,0.16144246918626662,1.919853427809952,-0.03755344507484903
111,0.16322940908581385,1.9198532330464286,-0.0
112,0.1647446822679768,1.9198530662126727,-0.3203048745413131
113,0.1662403118804461,1.9198529000298137,-1.2307713872600972
114,0.16790199613508364,1.9198527136348056,-2.1112708366878543
115,0.16954593152700445,1.9198525274062483,-2.0384329867233077
116,0.1712360626173393,1.919852334052645,-1.377945766558649
117,0.17279331258717484,1.9198521542030098,-0.5294322104027717
118,0.1745532870508584,1.919851948980214,-0.0
119,0.17608681165496687,1.9198517684670038,-0.0
120,0.17756604649650706,1.9198515928480426,-0.45728573261625727
121,0.17896046515746927,1.9198514259533423,-1.3333650476467314
122,0.17997262272049472,1.9198513039927547,-1.9249609821108764
123,0.18098478028352016,1.9198511813442465,-2.156760142548807
124,0.18255348563157775,1.9198509898965737,-1.9121521126458667
125,0.18409901957754257,1.9198507996607679,-1.2146652472575783
126,0.18558705968237318,1.9198506149861296,-0.41494440032084
127,0.18748672074114062,1.9198503770661595,-0.0
128,0.18889760175172615,1.9198501987944292,-0.0
129,0.19023917047430178,1.9198500280408435,-0.5109192462985118
130,0.19158464957598437,1.9198498555756733,-1.3653291901181768
131,0.19252116022687168,1.9198497348150385,-1.911668733296082
132,0.193457670877759,1.9198496134654526,-2.1498450397214692
133,0.19476997079606942,1.9198494424316268,-2.0072330059742085
134,0.19617630565817318,1.9198492578583934,-1.4673112325111182
135,0.19757316070403308,1.9198490732146167,-0.7075470869667676
136,0.19911235194741855,1.919848868238735,-0.04440095978886247
137,0.20090762465742565,1.9198486271502302,-0.0
138,0.20242422770574872,1.9198484217980138,-0.31020275858505947
139,0.20382833393377428,1.9198482303012143,-1.1580253662261695
140,0.20540400587840218,1.91984801382923,-2.0445867318253166
141,0.20684376511344524,1.9198478145717404,-2.1038645361186252
142,0.20846893034597858,1.9198475879822698,-1.600882960933524
143,0.2099959514505149,1.9198473734603871,-0.7879017189200468
144,0.2115676787126245,1.9198471510226809,-0.0786519855573728
145,0.21346620326294616,1.9198468801230157,-0.0
146,0.21501832120748474,1.9198466568536317,-0.32503238353118913
147,0.216427628974224,1.9198464527258639,-1.1804100997083455
148,0.21776214848273387,1.919846258201116,-1.9654387539544862
149,0.21909666799124375,1.9198460624803726,-2.1374143752176487
150,0.22069884300046594,1.919845825925386,-1.7457116167764448
151,0.22222815266559787,1.919845598520641,-0.9729785861029793
152,0.22374451171516888,1.919845371490881,-0.21457426542380997
153,0.22567268420986264,1.9198450805741385,-0.0
154,0.22715826845604178,1.919844854730855,-0.12751863309834013
155,0.22864385270222093,1.919844627405447,-0.9483056879015572
156,0.23018510098899647,1.9198443899958058,-1.8965411802811816
157,0.23264034336525957,1.9198440085021706,-1.963839053012575
158,0.2345371668443349,1.9198437110032551,-1.1220001084654452
159,0.23627010251318686,1.9198434370964306,-0.2344619351882063
160,0.23825169780203742,1.9198431214149423,-0.0
161,0.2397596530582002,1.9198428794205273,-0.14476345001326374
162,0.241267608314363,1.9198426358989622,-0.9880716178265085
163,0.24283405556445434,1.9198423813142915,-1.9380291722244483
164,0.24551957731081958,1.9198419410191838,-1.8775916047420516
165,0.24757355519718044,1.9198416009976276,-0.8685844508734332
166,0.24943241472969652,1.9198412908341058,-0.038575749401062696
167,0.25125910087757514,1.9198409837781854,-0.0
168,0.252789629444599,1.9198407247792515,-0.3660567730814375
169,0.25432015801162283,1.9198404642070457,-1.3099578531613585
170,0.25535271456663866,1.9198402875257534,-1.9178132289213576
171,0.2563852711216545,1.919840110128397,-2.1581881887848264
172,0.2579456125589801,1.9198398406968529,-1.9149685628316295
173,0.2594862107252527,1.9198395730701927,-1.221206537815146
174,0.2609709999775085,1.9198393136299379,-0.4220252382768615
175,0.262854986078086,1.91983898230587,-0.0
176,0.2642539577398098,1.9198387347357238,-0.0
177,0.2656010085637209,1.9198384951115839,-0.49095447351312504
178,0.26694351606317596,1.9198382550830813,-1.3404796580041884
179,0.2679412685603716,1.9198380759095883,-1.922713198915622
180,0.26893902105756723,1.9198378960674647,-2.1536436459245714
181,0.2704640784415011,1.9198376198880351,-1.9267807459910513
182,0.27198644441967973,1.9198373426380098,-1.2547875623598612
183,0.27345813011398334,1.9198370731380117,-0.45846103751820616
184,0.2752669484280264,1.9198367399084078,-0.0
185,0.27669362705519507,1.9198364755282988,-0.0
186,0.27808577684414765,1.9198362162289002,-0.4462769061886745
187,0.27943258154957135,1.9198359641365617,-1.290970508771428
188,0.28046480427701703,1.9198357701023723,-1.9030371921689808
189,0.2814970270044627,1.9198355753525262,-2.1546317498078724
190,0.28297029408613805,1.919835296151015,-1.9454540903308835
191,0.28446413991350844,1.9198350115610114,-1.3024757512390965
192,0.2859166447299353,1.9198347334095525,-0.5116474926315961
193,0.28764231601243356,1.9198344011053954,-0.0
194,0.2892270866845358,1.919834094171849,-0.0
195,0.29073102063210493,1.9198338013344378,-0.4910550642544336
196,0.29214823124986394,1.9198335239929285,-1.3882366462691331
197,0.2932361569524891,1.919833310175617,-1.9944893873200569
198,0.2943240826551143,1.919833095563292,-2.145476591601917
199,0.2956698180586425,1.9198328289935689,-1.8981807802682726
200,0.2970671372113984,1.919832550918589,-1.2779529319263143
201,0.2984662346073516,1.919832271175709,-0.5165106009536394
202,0.30015638637558095,1.9198319314842807,-0.0
203,0.3017872957692971,1.919831601880423,-0.0
204,0.3033235837818243,1.9198312897651708,-0.5038520164781974
205,0.3047608184481106,1.919830996338431,-1.416081089990608
206,0.3057440509910672,1.9198307948017361,-1.968668972550284
207,0.30672728353402384,1.9198305926156485,-2.149588757545749
208,0.30841190999761314,1.9198302446895892,-1.8417969260736513
209,0.31001193693846474,1.91982991247071,-1.0746131594626804
210,0.3115463960545777,1.9198295922504465,-0.281072408395945
211,0.31348618139077566,1.9198291851807017,-0.0
212,0.3149642574132434,1.9198288733052458,-0.06242533296183957
213,0.3164249194149738,1.9198285636624153,-0.8263940364602467
214,0.3179148936283091,1.9198282463291028,-1.7700685580864288
215,0.320127926148779,1.9198277722470138,-2.0874285453461336
216,0.32201364743185296,1.9198273656863933,-1.3930603317118229
217,0.3237415896407084,1.9198269910455343,-0.4582573274120945
218,0.32566872996328916,1.9198265708499334,-0.0
219,0.3271057687147408,1.9198262558927266,-0.0
220,0.3284714838027792,1.9198259552818857,-0.5167807752503307
221,0.3298311649753191,1.9198256547544759,-1.3799149071695056
222,0.33108075216885663,1.9198253774657144,-2.0571563216118665
223,0.3322156007879635,1.9198251247290083,-2.1412057777121998
224,0.3335623698824085,1.9198248236738809,-1.837192405507999
225,0.3349475988198077,1.9198245127502942,-1.1830909005388803
226,0.3363492754829532,1.9198241968227643,-0.4288804238803739
227,0.3381808296102741,1.9198237820148756,-0.0
228,0.3395739172860521,1.9198234650013157,-0.0
229,0.3409348945466745,1.9198231540358057,-0.45434552743748546
230,0.3422688546239693,1.9198228480357962,-1.2925753187133089
231,0.34329284704891716,1.9198226123288769,-1.9000777840690304
232,0.34431683947386504,1.9198223759175088,-2.1534213859117743
233,0.3457573416178392,1.9198220421531014,-1.9576850710454066
234,0.34723359327918885,1.9198216986591228,-1.3348352679896016
235,0.34867436521360895,1.9198213620087783,-0.5485295766331197
236,0.35035344945623287,1.919820967914735,-0.0
237,0.35210925640913404,1.919820553787333,-0.0
238,0.3537140737625212,1.9198201734608749,-0.5742969728888967
239,0.3552105496505834,1.9198198172512768,-1.5307874126185028
240,0.35709473427230787,1.9198193666146832,-2.1455776690347936
241,0.3589028445067697,1.9198189319299452,-1.7559402399511377
242,0.36055704784659,1.9198185323216899,-0.918609267868187
243,0.36215159977545813,1.9198181453832597,-0.1491838380232827
244,0.3640905254969225,1.9198176725765592,-0.0
245,0.3654411205474159,1.919817341741671,-0.15364400652628946
246,0.3667917155979093,1.9198170096811922,-0.8998902074399903
247,0.368238259066163,1.9198166526713165,-1.8090052876696325
248,0.37054119240984945,1.919816081401841,-2.0503317784740664
249,0.37237348564876116,1.9198156243346598,-1.338028685744176
250,0.3740655943898722,1.9198152002331164,-0.42646818173078926
251,0.37602410992628066,1.9198147069587135,-0.0
252,0.37749050609668505,1.9198143359428954,-0.0
253,0.37882438125290435,1.919813997201602,-0.5635179004318395
254,0.380176243350817,1.9198136526726823,-1.4276787462728344
255,0.3811524586195918,1.9198134031157181,-1.9734488745580827
256,0.3821286738883666,1.9198131529184066,-2.1494883412750387
257,0.38371991530824306,1.9198127437215153,-1.8722983919561182
258,0.38526938141599376,1.9198123436324197,-1.1515306154542055
259,0.3867659382624012,1.919811955673533,-0.35837855276216185
260,0.38882071079148167,1.9198114205543266,-0.0
261,0.39034042370137395,1.9198110229542535,-0.05158792238662782
262,0.39176657535691656,1.9198106484209312,-0.7881187407374605
263,0.39322700542534156,1.919810263469096,-1.719456173836654
264,0.39536757922671006,1.9198096966497025,-2.1234503386333636
265,0.3972492746599551,1.9198091958377745,-1.4819573791259426
266,0.3989824944682692,1.919808732437408,-0.5399718333213855
267,0.4008181990645309,1.9198082394350613,-0.0
268,0.4022771402646973,1.9198078460024008,-0.0
269,0.4037069239609584,1.9198074590448908,-0.43245464481263307
270,0.4050681655500395,1.919807089361108,-1.2809126917259905
271,0.40608843219400137,1.9198068114623406,-1.8904072556312588
272,0.40710869883796325,1.919806532864052,-2.1570498326397956
273,0.40847095942343614,1.9198061597889176,-1.9933443412620955
274,0.40990518045379504,1.9198057656587073,-1.4199230073043532
275,0.4113189752523887,1.91980537578877,-0.6470347152692262
276,0.4129047909354384,1.9198049368837748,-0.0021234303079800945
277,0.41460097658322514,1.9198044655612174,-0.0
278,0.41624632551014323,1.9198040065173465,-0.40261037388401755
279,0.4177301487009006,1.9198035909781395,-1.3293786645522851
280,0.4186665790819791,1.9198033279727094,-1.8842234542992904
281,0.41960300946305756,1.9198030643779602,-2.143754801923036
282,0.42082221837735706,1.9198027203010632,-2.03741740584598
283,0.4221749685307319,1.91980233736795,-1.5599812829056796
284,0.4235408059176486,1.91980194948241,-0.8297172891325525
285,0.4250082361653769,1.9198015313483192,-0.1375029570718248
286,0.42697286124253947,1.9198009692762275,-0.0
287,0.42829960595597344,1.9198005882319817,-0.1611634659551786
288,0.4296263506694074,1.9198002060047095,-0.8985230181313739
289,0.4310595624028031,1.9197997917756755,-1.8006678627915724
290,0.4333713425994163,1.9197991207121134,-2.050424944098762
291,0.4352173097107551,1.9197985822855907,-1.3316853184049777
292,0.43691753641301373,1.9197980843420621,-0.41693641270608633
293,0.4388964529045881,1.9197975023322493,-0.0
294,0.44021384262634666,1.9197971134216285,-0.0
295,0.44149919756277667,1.919796732843825,-0.47503039406871017
296,0.4428023688425122,1.919796345857188,-1.2961652552421306
297,0.44379135012709714,1.9197960514098427,-1.8856987445367004
298,0.4447803314116821,1.9197957563050974,-2.1507999224995675
299,0.4460813858043712,1.919795367078732,-2.011913481046052
300,0.4474812565897775,1.9197949470195723,-1.4788846780742488
301,0.4488742668822988,1.91979452771155,-0.7219454449889094
302,0.45040390652148854,1.9197940657744719,-0.05476702192996342
303,0.45221102837873306,1.9197935180137995,-0.0
304,0.4535639409799173,1.9197931064926677,-0.22157839488272288
305,0.4548410390104366,1.9197927169035474,-0.9538408468913815
306,0.4562621295949896,1.9197922820996574,-1.8399041495945034
307,0.4583560712596627,1.9197916389532357,-2.0923376156570748
308,0.4601206720494903,1.9197910946742753,-1.457480142476921
309,0.46177612915897814,1.9197905821570502,-0.5561831644839677
310,0.4635590257850432,1.9197900281251474,-0.0
311,0.4650762036483554,1.9197895549820858,-0.0
312,0.46655294266827463,1.9197890929641868,-0.43883228382947564
313,0.46794167039323786,1.9197886571443379,-1.3067855808185116
314,0.46914055091997886,1.9197882798609258,-1.989354418465706
315,0.47026354364662615,1.9197879255827446,-2.148365829741375
316,0.4716726533266503,1.9197874798420436,-1.8765731433258739
317,0.47310589045378765,1.919787025099909,-1.220882562511284
318,0.4745305530543162,1.9197865717098128,-0.45133123824631477
319,0.47632732120113663,1.9197859979539016,-0.0
320,0.47775773276067707,1.919785539633795,-0.0
321,0.4791519403487044,1.919785091590154,-0.4470906943035155
322,0.4805002458253557,1.9197846570547348,-1.293326028084349
323,0.48155816221920494,1.9197843152510217,-1.916956679628953
324,0.48261607861305417,1.9197839726949177,-2.154646843158676
325,0.4842892307311285,1.9197834293879055,-1.8634281541358764
326,0.48588736252733944,1.9197829086842306,-1.1066212782286347
327,0.4874163819771719,1.9197824088915079,-0.3076776363996378
328,0.4894423634338002,1.9197817442350882,-0.0
329,0.49095126324745136,1.91978124742284,-0.08434733595113895
330,0.4924601630611025,1.919780749079912,-0.8945730700886145
331,0.49399820246906934,1.9197802395377581,-1.852841346404224
332,0.49604067698254983,1.9197795604212842,-2.087170533470261
333,0.4977797259089478,1.919778979982209,-1.4722918106457428
334,0.4994202011755914,1.9197784305801797,-0.58094859270408
