,time,theta,torque
0,0.0,1.9198621771937625,-135.0844310926892
1,0.0005109355986665819,1.9198621771061304,-81.25371826963158
2,0.0010005753646194428,1.9198621768576918,-54.93138741355407
3,0.0016486883892372775,1.9198621762813144,-35.91533613685652
4,0.002464631049847368,1.9198621751546798,-23.251864531811957
5,0.003502726150573723,1.9198621730752217,-14.859100256074925
6,0.004821305949000831,1.9198621693907842,-9.397038869631661
7,0.006490573256217968,1.9198621630522086,-5.90578672861266
8,0.008587763125006566,1.919862152437154,-3.722202591626847
9,0.011192123881350534,1.9198621351447234,-2.394287764886462
10,0.014379237923917133,1.9198621077868328,-1.6178874656039457
11,0.018219916207274346,1.9198620657581773,-1.18853366387088
12,0.022792565582695552,1.9198620028053388,-0.9671793314829346
13,0.028210818315734045,1.9198619100391299,-0.8596108011247976
14,0.031141496246615632,1.919861851649261,-0.8296747042343016
15,0.03186200163390189,1.9198618364110587,-0.9585712323808977
16,0.03251335805906035,1.9198618223353507,-1.1920350040361833
17,0.035222338924446234,1.9198617607389252,-1.7806220361749525
18,0.037923413072063615,1.9198616944169056,-2.0173175640051846
19,0.04118452175445775,1.9198616078169564,-2.1331694725659625
20,0.04530257506805356,1.9198614882597227,-2.1839801631308173
21,0.05041402227723014,1.9198613240253493,-2.201680423580189
22,0.056855735817806216,1.919861092065868,-2.209289481395953
23,0.0653555903018294,1.9198607433617403,-1.4169061393974642
24,0.07013189299061065,1.9198605261287094,-1.0437023692301386
25,0.0749081956793919,1.9198602935792675,-0.903036866248923
26,0.08089800241914898,1.9198599802985803,-0.8405921279904932
27,0.08802388542389004,1.9198595762239465,-0.8140223564253373
28,0.09136675236141224,1.9198593749180064,-0.8051596384144973
29,0.09273643294057816,1.9198592902696203,-0.80158311985732
30,0.09410611351974409,1.9198592043616676,-0.7980011975066189
31,0.0948696294682416,1.919859155926296,-1.0726445643347722
32,0.0956331454167391,1.9198591070995255,-1.3228033207965566
33,0.09836400817339294,1.9198589292576227,-1.8332398235797354
34,0.10092476120720369,1.9198587579448205,-2.0328963732628056
35,0.10432288327102968,1.919858523814878,-2.1417496600119392
36,0.10852901548953652,1.9198582232758237,-2.1871148865234677
37,0.11377501403249017,1.9198578317892907,-2.2027004007307966
38,0.12039461020814632,1.9198573114285595,-2.2100261338644795
39,0.12805763175413576,1.9198566723019965,-1.4676269727033577
40,0.1327529968052313,1.9198562612092107,-1.0667327116763512
41,0.13744836185632686,1.9198558353136252,-0.9136505693076222
42,0.1433278376476215,1.9198552811393488,-0.8447366672886716
43,0.15031067235306997,1.9198545928139692,-0.8159679395931118
44,0.15335201176677427,1.919854282781937,-0.8075798424243411
45,0.15639335118047856,1.9198539665390744,-0.799572471780131
46,0.15681120523966433,1.9198539226047275,-0.7984607941683681
47,0.1572290592988501,1.9198538785531418,-0.8761980054134412
48,0.15764503293350837,1.919853834583348,-1.0360337545101654
49,0.1605721974560534,1.9198535218868893,-1.7500520940282278
50,0.16349893184561165,1.9198532034843108,-2.0171573675619574
51,0.16669062113961503,1.9198528497007135,-2.1316598018804913
52,0.17081252944753064,1.9198523826855989,-2.1835380439863634
53,0.1759045932798509,1.9198517899988403,-2.2014772780445204
54,0.18231843111047039,1.9198510186883078,-2.2090541006596416
55,0.19076107711141352,1.9198499612865236,-1.4197645214033856
56,0.19553396108581345,1.9198493423271366,-1.0445564295288023
57,0.2003065979507399,1.9198487081035531,-0.9031741395845129
58,0.2062904602669993,1.919847891311823,-0.8405981790925763
59,0.21340930098757677,1.919846888277563,-0.8142867505403999
60,0.21675139096737955,1.919846405642938,-0.8055680842015178
61,0.2182317057874241,1.919846189472177,-0.8017582109829609
62,0.21971202060746864,1.9198459718298206,-0.7979313240471578
63,0.22027089281658258,1.9198458892793182,-0.9014497631734583
64,0.2207988378451351,1.9198458111043786,-1.0994069419038015
65,0.22361243618934662,1.919845391326661,-1.7585252000853562
66,0.22642603453355814,1.9198449662326327,-2.0142271479248355
67,0.22963705330157733,1.9198444745983374,-2.1308293771015987
68,0.2337403285239882,1.9198438362741712,-2.1830841962887555
69,0.23882229060946147,1.9198430300266582,-2.2013275731619966
70,0.24522428818090225,1.9198419896692671,-2.209041730720665
71,0.2536299767960911,1.9198405819050366,-1.421978549281031
72,0.25840087646599175,1.919839761776126,-1.045506418312014
73,0.263169619112157,1.9198389267411529,-0.9036229763960916
74,0.269148769311182,1.9198378581758688,-0.840738002449347
75,0.27626119395986276,1.9198365558075599,-0.8142704245859688
76,0.27960142464510324,1.9198359324468905,-0.8055157194220776
77,0.2810810967829982,1.919835653912323,-0.8016949007446107
78,0.28256076892089316,1.9198353739071716,-0.7978597415688691
79,0.2833259466335086,1.9198352285322076,-1.0730993362922399
80,0.284091124346124,1.9198350827639774,-1.323654872052678
81,0.28681208868725167,1.9198345612279222,-1.8324797193820674
82,0.2893719932339976,1.919834066022614,-2.0324827050308705
83,0.29276797264786314,1.9198334022884564,-2.141506112331301
84,0.29697256462100535,1.9198325697804863,-2.18696252591734
85,0.30221479050289385,1.9198315151889631,-2.202554476517056
86,0.30882894896706986,1.919830158264112,-2.2098512150234084
87,0.3164717266231455,1.9198285537161486,-1.468642403405278
88,0.32116514941373686,1.9198275489177716,-1.0670161702014047
89,0.32585857220432823,1.9198265293215502,-0.9136357216650919
90,0.33173581851774747,1.9198252316845912,-0.8446254390815993
91,0.3387157789495466,1.9198236604350347,-0.8159141506789085
92,0.34175628321771995,1.9198229657570935,-0.8075660638271088
93,0.3447967874858933,1.9198222648683965,-0.7995930960080638
94,0.3452681167496161,1.919822155662855,-0.7983433823976585
95,0.3457394460133389,1.9198220463080657,-0.8858790516188275
96,0.3461985134828334,1.9198219396547047,-1.0606546687115497
97,0.3489935536508153,1.9198212872385971,-1.7407604597809416
98,0.3517885938187972,1.9198206295739095,-2.0059613978944335
99,0.3549604559059647,1.9198198768863792,-2.1267905253269648
100,0.3590198791027925,1.919818903718167,-2.181528890785712
101,0.3640459868581559,1.9198176834656433,-2.2007211101728106
102,0.3703599426231157,1.9198161264921554,-2.208451223529254
103,0.3737643899515149,1.9198152758662144,-2.212186854992178
104,0.3754174888599576,1.9198148600186393,-2.2141494308537077
105,0.3763571762589792,1.9198146228157527,-2.215309891205399
106,0.37729686365800075,1.9198143850195553,-2.088122015021034
107,0.37819812792250257,1.9198141563892528,-1.8621577636907731
108,0.38291098643340277,1.919812951954845,-1.2107569203665345
109,0.3871551783157648,1.9198118545225418,-0.9848092338592952
110,0.3925274911708703,1.9198104480314908,-0.8735345784249209
111,0.39884610267120685,1.9198087689768253,-0.8283573548291837
112,0.406541825855438,1.9198066877431252,-0.8036077162781246
113,0.40750700173970805,1.9198064239119423,-0.8008576637751138
114,0.40806647489386755,1.9198062706931374,-0.7992757903022947
115,0.40862594804802704,1.9198061172639855,-0.9027940209963753
116,0.40915437297316243,1.9198059721562963,-1.1008026388380456
117,0.4119809985419491,1.9198051927665867,-1.7609218247025558
118,0.41480762411073574,1.9198044080075225,-2.0159461347965992
119,0.4180236439763386,1.9198035086105916,-2.1315890371938684
120,0.42213723737164366,1.9198023480654651,-2.183319124356992
121,0.42722809640318915,1.9198008960639832,-2.2012680976763033
122,0.4336422894521826,1.9197990418265016,-2.208842763587951
123,0.4420995127088659,1.919796554717467,-1.4186878278678579
124,0.4468734539694679,1.919795129564667,-1.0439509706664418
125,0.45164739523006997,1.919793689093428,-0.9027553137557787
126,0.4576331562111682,1.919791861327023,-0.8402631591180554
127,0.46475439354852627,1.9197896554702214,-0.8139648911820097
128,0.46809669465015535,1.919788608413149,-0.8052418111818351
129,0.4695770659978573,1.9197881422512528,-0.8014293653036043
130,0.47105743734555927,1.919787674616184,-0.7975999492702367
131,0.4718226038793328,1.9197874323299233,-1.072841331917735
132,0.4725877704131063,1.919787189650086,-1.3234085392922854
133,0.47529851016203056,1.919786326746224,-1.8311804587118026
134,0.4778585521620381,1.9197855072782242,-2.0318112439893534
135,0.4812511453304852,1.919784414523037,-2.1410826356172983
136,0.4854525841667328,1.9197830505138378,-2.1866898070602065
137,0.4906882385050464,1.9197813341351093,-2.20233890787301
138,0.49729342968734047,1.9197791424971737,-2.2096346410986256
139,0.504915880501271,1.9197765768703017,-1.4696473049995231
140,0.5096073693889481,1.9197749783494922,-1.067285439693761
141,0.5142988582766252,1.919773365029711,-0.913591529310354
142,0.520173737331944,1.919771323893272,-0.8444520374766336
143,0.5271506228950658,1.919768869735404,-0.8157501894298009
144,0.5301899380539505,1.919767790404275,-0.8074243629281048
145,0.5332292532128353,1.919766704861381,-0.7994724218634123
146,0.5337716184820946,1.9197665104932797,-0.7980372496715409
147,0.534313983751354,1.9197663159273646,-0.8985337693070816
148,0.5348290822046151,1.9197661309598892,-1.0922237441979044
149,0.5375735469781739,1.9197651424380109,-1.7459759372059938
150,0.5403180117517328,1.9197641488509098,-2.005026533634315
151,0.5435017695342393,1.9197629898788255,-2.1265448750166267
152,0.5475548726440164,1.919761504579063,-2.1812498491697077
153,0.5525808978598288,1.9197596473979612,-2.2004998620355405
154,0.5588993912490916,1.9197572885288927,-2.208272704919573
155,0.562301059204692,1.9197560074725513,-2.2120177067366082
156,0.5639530912547893,1.9197553825153388,-2.2139842123426674
157,0.5648922976533787,1.9197550263988081,-2.2151465729499242
158,0.565831504051968,1.9197546696889691,-2.0880228408741166
159,0.5667323671444904,1.919754326984414,-1.8621382758413108
160,0.5714423093797335,1.919752526350043,-1.210870221174183
161,0.5756864781803184,1.9197508910022716,-0.9847412922764983
162,0.5810578985979807,1.9197488039349708,-0.873358707269276
163,0.587375589821019,1.9197463243558877,-0.8280910086574016
164,0.5950695338774129,1.9197432683621976,-0.8032721579732227
165,0.5960344137962076,1.9197428823067963,-0.8005167409440176
166,0.596593743561943,1.9197426582281627,-0.7989320345100385
167,0.5971530733276783,1.9197424339390612,-0.9024217790592751
168,0.5976813833315673,1.9197422218954818,-1.1003949127455248
169,0.6005026037138892,1.919741086386044,-1.7598612937402507
170,0.6033238240962111,1.9197399455218982,-2.0150589191257557
171,0.6065372802458917,1.9197386395195097,-2.131036509361656
172,0.6106490203729427,1.9197369583074577,-2.182970402435298
173,0.6157346028774879,1.919734863174891,-2.2010045573863994
174,0.6221424200388768,1.9197321985383917,-2.2086051410733125
175,0.6305723104027041,1.9197286509586349,-1.4200164483063722
176,0.6353447689800803,1.9197266213495647,-1.0443140050956266
177,0.6401160992669829,1.9197245768988966,-0.9027463414475884
178,0.6460986983884464,1.9197219917881303,-0.8400695119956112
179,0.653215577931014,1.9197188851788975,-0.8137292738745298
180,0.6565565973407581,1.9197174150235377,-0.8050101563720276
181,0.6580365124529935,1.9197167614126764,-0.8012006332559614
182,0.659516427565229,1.9197161063277532,-0.7973740977910612
183,0.6600752493348367,1.91971585858171,-0.9008856322210705
184,0.6606031352260868,1.9197156243576177,-1.098831823251239
185,0.6635806539516195,1.9197142997137315,-1.7798973036090024
186,0.6664256730977113,1.9197130284417165,-2.024382880254813
187,0.6696852100171576,1.9197115652495098,-2.1354623307588505
188,0.673850605613941,1.9197096850124162,-2.184556189066543
189,0.679002570255484,1.9197073432874696,-2.2014862852123245
190,0.6855039141810182,1.9197043627287684,-2.2090296010450685
191,0.6940923219186506,1.9197003817284655,-1.4118079022555288
192,0.6988751646795713,1.9196981432014522,-1.0415481583063966
193,0.7036580074404921,1.9196958892733205,-0.9019358630128973
194,0.7096573545902292,1.9196930402880152,-0.8396441755809306
195,0.7167947771461665,1.91968961928458,-0.8126220995473997
196,0.7201378125298215,1.9196880051546148,-0.8035245200799128
197,0.7221919165115733,1.9196870096315144,-0.798053507475337
198,0.7228629471454262,1.9196866838003046,-0.9218521169540231
199,0.7234765961365576,1.9196863855663722,-1.1473239002285096
200,0.7262369563602176,1.919685040893128,-1.7697260502444172
201,0.7290125745818189,1.9196836836134514,-2.0165095963896187
202,0.7322491033775212,1.9196820943962194,-2.1319759417249506
203,0.7363681038259097,1.9196800616613852,-2.1831786635677966
204,0.7414725215344605,1.919677526767764,-2.2009500875188652
205,0.7478955063505137,1.9196743121305495,-2.208513389233334
206,0.7563635313675641,1.9196700315065442,-1.4177761157044255
207,0.7611382444037426,1.9196675965729963,-1.0433801647157863
208,0.765912957439921,1.9196651462826522,-0.9022749241006608
209,0.7718997477442429,1.9196620522775567,-0.8397316125806147
210,0.7790220584593605,1.9196583399800695,-0.8132832919627043
211,0.7823635733170096,1.9196565865345,-0.8044941983346771
212,0.7838436359979299,1.9196558074740215,-0.8006572097935604
213,0.7853236986788503,1.9196550269376549,-0.7968072967076154
214,0.786088718828335,1.9196546229126026,-1.0719962712307924
215,0.7868537389778196,1.9196542184932313,-1.3225513646068359
216,0.7896116693629587,1.9196527572709254,-1.8355121309916123
217,0.7921723710209992,1.9196513959572394,-2.033460464235475
218,0.7955784794915657,1.919649578363582,-2.1415910652684773
219,0.7997925191152244,1.9196473188168905,-2.1865585135483907
220,0.80504566323693,1.9196444853517447,-2.202021171753632
221,0.8116745337824635,1.9196408833023042,-2.2093840240282385
222,0.8192835824456338,1.9196367121307834,-1.4703766150938997
223,0.8239738011759764,1.9196341215810915,-1.0675504724306755
224,0.828664019906319,1.9196315162048667,-0.9135508839173363
225,0.8345362473409006,1.919628233329812,-0.8440751997227416
226,0.8415095886501777,1.9196243046858936,-0.8149963394088379
227,0.8445459270494473,1.919622583828515,-0.8065393706083529
228,0.847582265448717,1.9196208567561681,-0.7984892542776258
229,0.8479999576170911,1.9196206186861458,-0.797372049898474
230,0.8484176497854653,1.9196203804985075,-0.8750774333280151
231,0.8488334645015886,1.919620143264656,-1.0348625679775951
232,0.851749315943689,1.919618476415783,-1.7474311740169413
233,0.8546604269861103,1.91961680655882,-2.0147555822078527
234,0.8578474748376466,1.9196149718688913,-2.130101523619193
235,0.8619597635794695,1.9196125944260383,-2.1824058649552547
236,0.8670362615996882,1.9196096438180603,-2.2005391957851628
237,0.8734323142468585,1.9196059015078761,-2.2081625261832167
238,0.8818584534679323,1.9196009292913858,-1.4197160006833656
239,0.8866309685317897,1.9195980918182953,-1.0438247857958634
240,0.8914018541029981,1.9195952399610772,-0.9022044503902308
241,0.8973844150067204,1.919591642115238,-0.8395243612512997
242,0.9045010668391653,1.9195873308013582,-0.813228261758616
243,0.9078416241111653,1.9195852952886578,-0.8045319818527492
244,0.9093213499767342,1.9195843912367896,-0.800730854391297
245,0.9108010758423031,1.919583485707914,-0.7969112372081472
246,0.9114846699575798,1.9195830668787968,-0.9230259421113022
247,0.9121077319277735,1.9195826848623332,-1.151487759969899
248,0.9147913496299478,1.9195810364692862,-1.760703583796424
249,0.9175635411800417,1.91957932856889,-2.012295453041077
250,0.9207806983491618,1.9195773400331895,-2.1296631377417614
251,0.9248777859797875,1.9195747975009676,-2.1820511708588257
252,0.9299549185635413,1.9195716310689688,-2.2003717035100516
253,0.9363408061352869,1.919567623716892,-2.2080879086017275
254,0.9447545059816067,1.9195623018366106,-1.420440224339734
255,0.9495262876795612,1.919559262333962,-1.0441260173247204
256,0.9542961127016374,1.9195562087209215,-0.9023063406768338
257,0.9602768052722813,1.9195523582217855,-0.8394676604230691
258,0.9673911385917028,1.9195477464212605,-0.813034760687374
259,0.9707305795322806,1.919545569878169,-0.804292895331088
260,0.9722099133890972,1.9195446032887693,-0.8004759185138572
261,0.9736892472459139,1.9195436352221489,-0.7966434684341036
262,0.9742479922391997,1.9195432691986498,-0.9001425473744569
263,0.974775803481307,1.9195429232457148,-1.0980743157181123
264,0.9778614896032622,1.919540896974875,-1.792809276215821
265,0.9807011112005276,1.9195390266075723,-2.029035171964382
266,0.9839920476646881,1.919536852163745,-2.1374973238118167
267,0.9881875886320851,1.9195340694116907,-2.1849478122324975
268,0.9933815781102293,1.9195306079615735,-2.2012502286652817
269,0.999937667082391,1.9195262127563104,-2.208748862540206
270,1.007715262458248,1.9195209610148258,-1.4591341074808315
271,1.0124226874338804,1.919517762530628,-1.0620241704746958
272,1.017130112409513,1.919514549081417,-0.9106521702925829
273,1.0230253484742162,1.919510503684973,-0.8426381606204671
274,1.0300285928775241,1.919505667451986,-0.8141721111049759
275,1.0333394289693816,1.9195033695540231,-0.8051162059433543
276,1.036650265061239,1.9195010642516357,-0.7964185358403701
277,1.0374426314325749,1.9195005114366628,-1.0811410590322945
278,1.0382349978039107,1.9194999581975698,-1.3377643720150298
279,1.0410251493645073,1.919498006706218,-1.844306159627759
280,1.043583848630366,1.9194962124747292,-2.0370319947846194
281,1.0470157602702603,1.919493798977702,-2.143050089080475
282,1.0512543123201408,1.9194908072272052,-2.1867768462923896
283,1.0565385268558827,1.9194870604045997,-2.2017697771084506
284,1.063216548140248,1.9194822983022086,-2.2091126220942052
285,1.070742903372534,1.919476895132092,-1.4754022325275005
286,1.075425012096047,1.9194735145321855,-1.0696796154669679
287,1.0801071208195598,1.9194701191167234,-0.9143032620577717
288,1.0859678967985313,1.9194658480635298,-0.8439781721755709
289,1.09292624279652,1.919460747007965,-0.8144221392286509
290,1.0962251300093997,1.9194583172084887,-0.8051324398001193
291,1.0995240172222793,1.919455880052343,-0.796312376376878
292,1.1003161321868147,1.9194552937572922,-1.0809252569406829
293,1.10110824715135,1.9194547070380668,-1.3374739937297915
294,1.1036663734861987,1.919452809337982,-1.8190050572130014
295,1.1062107493854405,1.9194509174498602,-2.024868982730492
296,1.1095736767748683,1.919448410206667,-2.1371990381374024
297,1.1137391595008557,1.9194452940140212,-2.1845225832340978
298,1.11893234624145,1.919441392566321,-2.200920882433001
299,1.1254806328077593,1.919436447087421,-2.208368347800793
300,1.13415459622819,1.9194298515828432,-1.406333800481528
301,1.1389447310973013,1.9194261874528107,-1.0387911551838287
302,1.1437348659664126,1.9194225078033043,-0.900236940745052
303,1.149744494739452,1.9194178694218023,-0.838265187162043
304,1.156894745986801,1.9194123188529852,-0.811063981956239
305,1.1602387437966026,1.9194097111172264,-0.8018457540973172
306,1.1622933089111152,1.919408105162306,-0.7963124108540599
307,1.1630690375555979,1.9194074980697478,-1.0752030784244502
308,1.1638447662000806,1.9194068905700552,-1.3281341706010152
309,1.166680287080388,1.9194046665123836,-1.845122689425047
310,1.1692397128503915,1.9194026543402516,-2.0372866031230736
311,1.17267491317723,1.9193999466838298,-2.1430322029408155
312,1.1769179800900331,1.919396591236851,-2.1866032160523656
313,1.182208215343327,1.919392390617537,-2.20151494569421
314,1.1888975237344517,1.9193870519727045,-2.2088420435275853
315,1.1963896979437698,1.919381036615956,-1.477269256315253
316,1.2010685508198566,1.919377260760929,-1.0703171301266823
317,1.2057474036959435,1.9193734700869396,-0.9143891369382439
318,1.2116038652578884,1.9193687044633787,-0.8437795837189123
319,1.218556636441992,1.919363016583612,-0.8141336630443559
320,1.2215833459341028,1.9193605302864707,-0.8055650384803726
321,1.2246100554262136,1.9193580377863182,-0.7974526152027703
322,1.225027488124934,1.9193576935430607,-0.7963270655275941
323,1.2254449208236542,1.9193573491818106,-0.8739804290678131
324,1.2258604999999718,1.919357006232416,-1.0336875045803464
