,time,theta,torque
0,0.0,1.9198621771937625,-135.0844310926892
1,0.0005104670299438149,1.9198621771062911,-81.31482935173304
2,0.0010008045340005084,1.919862176857538,-55.00168562005645
3,0.001661140681217472,1.9198621762674792,-35.811861344192856
4,0.002496305393504373,1.9198621751019322,-23.167798158910266
5,0.003576235522850634,1.9198621729005416,-14.847026437387843
6,0.004972132075193005,1.9198621688949429,-9.548914228972942
7,0.006776392856990198,1.9198621617793075,-6.312350128633713
8,0.009075178148868041,1.9198621495471861,-4.481941217600189
9,0.011905279201610074,1.9198621296153184,-3.583297489052567
10,0.014995614714587881,1.9198621017089381,-3.256933152403696
11,0.018276851608391178,1.919862065060639,-3.139121394449504
12,0.022013441138828752,1.9198620145239056,-2.955350875541198
13,0.026314486595117176,1.9198619447482852,-2.532084530927701
14,0.030708440228629782,1.919861860640409,-1.8522441333961652
15,0.03478909168503661,1.9198617709210122,-1.0426106935498332
16,0.03851739477133183,1.9198616791753058,-0.23361083854396383
17,0.04203478417448679,1.9198615840644455,-0.0
18,0.045817168916420355,1.9198614725195382,-0.0
19,0.05002910896367684,1.9198613370036042,-0.0
20,0.05471655593155453,1.919861172185191,-0.0
21,0.05904318567635286,1.9198610069616056,-0.0
22,0.06260047720607953,1.9198608617026065,-0.0
23,0.06561246109997779,1.9198607320686012,-0.0
24,0.06842266408444286,1.9198606056266834,-0.0
25,0.0712125396250096,1.9198604748546635,-0.0
26,0.07414748641240707,1.9198603316422567,-0.6508206749911459
27,0.07662369402909286,1.9198602063162666,-2.121596884480012
28,0.07862570935008907,1.9198601019804604,-2.77104036588741
29,0.08062772467108528,1.9198599949536692,-2.9480001526327535
30,0.08291242456074623,1.919859869526927,-2.9697405601546176
31,0.08694690225630997,1.919859639481423,-2.747341501703868
32,0.09222808698962937,1.919859321833178,-2.073980325288333
33,0.09596741949164307,1.919859085599541,-1.382900474661453
34,0.09970675199365678,1.9198588399779222,-0.5895789970046316
35,0.10228623885383117,1.9198586650701357,-0.028821534163271594
36,0.10486572571400557,1.9198584856949594,-0.0
37,0.10783913996252455,1.9198582733835692,-0.0
38,0.11137932286521159,1.9198580128618907,-0.0
39,0.11623018317357003,1.9198576422229994,-0.0
40,0.12036965624990416,1.9198573134454147,-0.0
41,0.12422103836259187,1.9198569972176238,-0.0
42,0.12736813097890956,1.9198567314233115,-0.0
43,0.1302932793478876,1.919856478410716,-0.0
44,0.1330911475723817,1.9198562310317133,-0.0
45,0.13597245906957844,1.919855970781384,-0.0
46,0.1388883517169038,1.9198557017325415,-1.8151708120151606
47,0.1402414573525292,1.9198555749424873,-2.469977979081024
48,0.14159456298815457,1.9198554469230884,-2.8033109186504293
49,0.14410715088764697,1.9198552059424498,-2.9667715320113657
50,0.14638115741819477,1.9198549841897166,-2.9532162233194366
51,0.14985841819393006,1.919854638385997,-2.7385780596532903
52,0.1539880673532434,1.9198542171575916,-2.2374515720074903
53,0.1581002436034291,1.9198537863329281,-1.5201391465715566
54,0.1619252589162842,1.9198533754007532,-0.7224280962575722
55,0.16548994926540497,1.919852983592088,-0.0
56,0.16880219096061097,1.9198526118835704,-0.0
57,0.17228479106715355,1.919852213112138,-0.0
58,0.17660706628448472,1.919851706868405,-0.0
59,0.18099295983667504,1.919851180350285,-0.0
60,0.18508567399173098,1.919850677377174,-0.0
61,0.18892306349773458,1.9198501955649343,-0.0
62,0.1920042741333545,1.9198498015389935,-0.0
63,0.19486517935748884,1.919849429977973,-0.0
64,0.19772672163944285,1.9198490528361722,-0.0
65,0.20076371319948366,1.919848646556001,-1.253349323314666
66,0.2027334135210837,1.9198483797438652,-2.328497411551485
67,0.20470311384268375,1.9198481103263907,-2.841471668971284
68,0.20703288378516788,1.919847788294965,-2.972637648960543
69,0.209362653727652,1.9198474626185658,-2.950209264125612
70,0.21286809621458977,1.9198469657278179,-2.7228307211483544
71,0.2169799310470814,1.9198463723652308,-2.21336458789007
72,0.22106111991672991,1.9198457721976268,-1.4947392690427301
73,0.22486173207228174,1.9198452032323294,-0.6995867706540012
74,0.22841203094656506,1.919844662976613,-0.0
75,0.23238266270094765,1.919844048730538,-0.0
76,0.23632245908408692,1.9198434287895951,-0.0
77,0.2417278306585146,1.919842561272922,-0.0
78,0.24609057669247889,1.919841846778614,-0.0
79,0.2500660776615799,1.9198411845727053,-0.0
80,0.2532315746323585,1.9198406496997222,-0.0
81,0.2561460817868754,1.9198401512858108,-0.0
82,0.2589480792910091,1.9198396667334308,-0.0
83,0.2611122903062888,1.919839288864839,-0.0
84,0.2632765013215685,1.9198389078504492,-1.0589113941057233
85,0.26542774110435946,1.9198385260020816,-2.2697983510458033
86,0.26757898088715043,1.919838141045471,-2.8438021166576903
87,0.26993706229754716,1.919837715504375,-2.9751163131120744
88,0.27269967883615576,1.9198372122098115,-2.9313642989025617
89,0.2768132735930001,1.9198364532942755,-2.6102227720628854
90,0.2814080134093643,1.9198355921749528,-1.9563875834135882
91,0.2852691992745359,1.9198348575689783,-1.217663538270963
92,0.28913038513970757,1.9198341129490386,-0.3876620434668731
93,0.29271371073597713,1.9198334129546877,-0.0
94,0.2960857577060594,1.919832746356154,-0.0
95,0.299823297561804,1.919831998581219,-0.0
96,0.3048251498125292,1.919830983172057,-0.0
97,0.3090071814128966,1.9198301212923046,-0.0
98,0.31288036981776063,1.9198293125835024,-0.0
99,0.31601874497648,1.9198286499103858,-0.0
100,0.3189224170110823,1.9198280309025484,-0.0
101,0.3217151350429273,1.9198274302046678,-0.0
102,0.3239977418010242,1.9198269353376323,-0.0
103,0.3262803485591211,1.919826436970453,-1.1642879600656073
104,0.32812260816593525,1.9198260321929028,-2.2036691023817876
105,0.3299648677727494,1.9198256251353674,-2.776546068244403
106,0.3320084145828974,1.9198251709350174,-2.9513227847499617
107,0.33432413154195667,1.9198246528510856,-2.9685891156941535
108,0.33833791442112454,1.919823746333591,-2.7415894276778725
109,0.34347561378021724,1.9198225701847698,-2.0862783430343828
110,0.34724207614539015,1.9198216966811017,-1.3931368175065242
111,0.3510085385105631,1.9198208136466206,-0.5949655715719632
112,0.3536208812675391,1.9198201955939345,-0.027132608069540355
113,0.3562332240245151,1.919819572956303,-0.0
114,0.359228121893816,1.9198188534974399,-0.0
115,0.36279481328329355,1.9198179888157376,-0.0
116,0.3681051098863175,1.9198166855915564,-0.0
117,0.37234704046232103,1.9198156309474803,-0.0
118,0.3762495889324755,1.9198146500038236,-0.0
119,0.37937531951251036,1.9198138569404373,-0.0
120,0.38224233033415767,1.9198131237474203,-0.0
121,0.385044406482796,1.9198124018235212,-0.0
122,0.38796569148441257,1.9198116435694885,-0.43204503434426833
123,0.38964029451266147,1.9198112063207309,-1.4957072839508925
124,0.39131489754091037,1.9198107671876103,-2.3731465907420706
125,0.39323430271327736,1.9198102615420216,-2.847587230164577
126,0.39579867604821356,1.9198095821236951,-2.97857767443301
127,0.3985808518602261,1.9198088400018285,-2.9216973165758864
128,0.4025818123455495,1.9198077636609463,-2.5982221645783783
129,0.4069962441174922,1.9198065636057131,-1.9684344573373747
130,0.4111642403777233,1.919805418524129,-1.1693966924548953
131,0.41496034596686093,1.9198043654543013,-0.3511490846415024
132,0.4185094104695753,1.919803372156174,-0.0
133,0.42193587829229307,1.9198024051384883,-0.0
134,0.42573908590634857,1.9198013225578718,-0.0
135,0.4309886061065358,1.9197998123160562,-0.0
136,0.4352060420587909,1.919798585579057,-0.0
137,0.4390946037889269,1.919797443910057,-0.0
138,0.44221592831268536,1.9197965201464253,-0.0
139,0.44508038533124245,1.9197956666412312,-0.0
140,0.44788152454572316,1.9197948266690354,-0.0
141,0.4508029479234968,1.9197939450089943,-0.436501823256303
142,0.4524883261114773,1.9197934337672211,-1.506094616911675
143,0.45417370429945786,1.9197929206161766,-2.3851321896498976
144,0.4560634546052569,1.919792342968862,-2.8469636456596126
145,0.45861219996553576,1.9197915600819548,-2.9782889446276033
146,0.4613892752632575,1.9197907020890876,-2.9227371185724373
147,0.4653952453665056,1.9197894552896848,-2.600240844373528
148,0.46981995102965335,1.9197880656272328,-1.9698035395954612
149,0.4739961989755884,1.9197867419246128,-1.169349749279981
150,0.4777971493572276,1.9197855269847977,-0.35003321753383754
151,0.48134879869297187,1.9197843829542984,-0.0
152,0.4847796166481401,1.9197832697928514,-0.0
153,0.48858874638396055,1.9197820246145503,-0.0
154,0.4937571968147694,1.9197803194863983,-0.0
155,0.49795313701611865,1.9197789219916273,-0.0
156,0.5018300170093614,1.9197776202416343,-0.0
157,0.504949203708437,1.9197765655683423,-0.0
158,0.507814400164975,1.9197755910111232,-0.0
159,0.5106098327576748,1.919774634863398,-0.0
160,0.5135213813124483,1.9197736334132949,-0.36146532668708076
161,0.5153131601801973,1.9197730142836025,-1.5015917012284987
162,0.5171049390479464,1.9197723929952037,-2.4260861452050744
163,0.5188779164692261,1.9197717761012218,-2.8430658569825766
164,0.5213151760625696,1.9197709246253702,-2.973961233556974
165,0.5237344235258279,1.9197700754920393,-2.9421018754333876
166,0.5273065433370036,1.9197688145156082,-2.695728537841963
167,0.5314357001310429,1.919767346210501,-2.1673143898452096
168,0.5355021044040786,1.919765889014474,-1.43861739519906
169,0.5392827592461883,1.9197645242415649,-0.6422987309892652
170,0.5424321174257454,1.9197633800208869,-0.0
171,0.5452998949804355,1.9197623323013964,-0.0
172,0.5484662824706286,1.9197611690624243,-0.0
173,0.5523152997206503,1.9197597459650657,-0.0
174,0.5570049011890225,1.9197579986131086,-0.0
175,0.5613742827912944,1.9197563572646759,-0.0
176,0.5649700632244886,1.9197549968860363,-0.0
177,0.5679962553109147,1.9197538452584464,-0.0
178,0.5708094054312265,1.9197527691801846,-0.0
179,0.5735849680347387,1.9197517022629498,-0.0
180,0.5764929449309755,1.919750578887523,-0.45253625253763924
181,0.5782386214212325,1.9197499017860817,-1.5562676288235622
182,0.5799842979114895,1.9197492226347819,-2.444892877349651
183,0.5816914208966071,1.9197485565001575,-2.8399245552238206
184,0.5840092903546361,1.9197476489089675,-2.9740588996915487
185,0.5867401399288846,1.9197465749729032,-2.9364278865125955
186,0.5908615139183705,1.919744944699368,-2.6222658334003586
187,0.5955049032035793,1.9197430942453413,-1.9669820761292922
188,0.5993904242270651,1.9197415346651399,-1.2253892856736226
189,0.603275945250551,1.9197399649281368,-0.39042118642829543
190,0.6068727252596803,1.9197385027885772,-0.0
191,0.6102496233663707,1.9197371221120527,-0.0
192,0.6139913725678394,1.9197355833021994,-0.0
193,0.6190066847285423,1.919733505959211,-0.0
194,0.6231907108798828,1.9197317599859456,-0.0
195,0.6270646205745063,1.919730132920686,-0.0
196,0.6302011964923633,1.9197288081419948,-0.0
197,0.6331017040899614,1.919727577178738,-0.0
198,0.6358938926086611,1.9197263868376049,-0.0
199,0.6381481291145131,1.9197254220038462,-0.0
200,0.6404023656203651,1.919724453750475,-1.1387250928088364
201,0.642604208839293,1.9197235047000154,-2.3493992159994295
202,0.644806052058221,1.9197225523869474,-2.8718654779493966
203,0.6478220872224973,1.9197212426345724,-2.9784762094509825
204,0.6508097640714108,1.919719939161398,-2.8707722486873455
205,0.6547657755793364,1.9197182039765728,-2.4957720101756107
206,0.6589628486226949,1.9197163515422289,-1.8554803818857553
207,0.6629351565046845,1.9197145873903843,-1.0749162141384434
208,0.6666076833223994,1.9197129469266179,-0.28050251278325494
209,0.6700913434143579,1.919711382436926,-0.0
210,0.673658608126509,1.9197097719358012,-0.0
211,0.6776278703984412,1.9197079698781245,-0.0
212,0.6826832049746147,1.9197056593849466,-0.0
213,0.6868060324262529,1.9197037623490625,-0.0
214,0.6906410284529237,1.9197019874807109,-0.0
215,0.6937437626678262,1.9197005442635324,-0.0
216,0.696598647655872,1.9196992106066175,-0.0
217,0.6994060609283843,1.9196978937749944,-0.0
218,0.7023429376954062,1.9196965105388244,-0.5654865376079772
219,0.7047352939513233,1.9196953794738116,-2.012786554420725
220,0.7067010333073988,1.9196944472219704,-2.7274472852789082
221,0.7086667726634742,1.9196935123684167,-2.9327616161853896
222,0.7107267169689722,1.9196925299217156,-2.9747710024101406
223,0.7146095727066162,1.9196906703076284,-2.8017205948195327
224,0.7203287456674271,1.919687912738495,-2.1104145835847077
225,0.7239165030913719,1.9196861716151712,-1.4563864226860421
226,0.7275042605153167,1.919684421823929,-0.701740437917162
227,0.7309326236741382,1.919682741672061,-0.0
228,0.7340382466374926,1.91968121285412,-0.0
229,0.7373731574735666,1.9196795639312956,-0.0
230,0.7414512457715723,1.919677537369892,-0.0
231,0.7459446772439671,1.9196752914382664,-0.0
232,0.7501477743556623,1.9196731783138345,-0.0
233,0.7540517356096461,1.9196712049225153,-0.0
234,0.7571668934182368,1.9196696228950394,-0.0
235,0.7600431661283861,1.9196681563810258,-0.0
236,0.7628978120315008,1.9196666953838293,-0.0
237,0.7659081407437536,1.9196651487622263,-1.0217058461665827
238,0.7681608420486662,1.9196639873948131,-2.2904730441472596
239,0.7704135433535788,1.9196628226088654,-2.8625619389798262
240,0.7732485672764492,1.9196613518677053,-2.978385038427423
241,0.7761622966682745,1.9196598346539124,-2.8892003315987327
242,0.7801242255678481,1.9196577624540314,-2.5330162709502755
243,0.7843806262733574,1.919655524453616,-1.8989821377584966
244,0.7884091045224846,1.919653395050762,-1.1149058250801267
245,0.7921181934238952,1.919651424804745,-0.31369469189357896
246,0.7956205088578302,1.9196495558867253,-0.0
247,0.7991037137467482,1.919647688968934,-0.0
248,0.8029772668464773,1.9196456032323987,-0.0
249,0.8077798098547184,1.919643003237025,-0.0
250,0.8122928013066631,1.9196405458333208,-0.0
251,0.8159629751105487,1.9196385372386866,-0.0
252,0.8190186670020517,1.9196368580092398,-0.0
253,0.821852615650749,1.9196352950124063,-0.0
254,0.8246222385488664,1.919633762262925,-0.0
255,0.8268088378634098,1.919632548515029,-0.0
256,0.8289954371779531,1.919631331544555,-1.1962352755924452
257,0.8306416740364161,1.9196304131909556,-2.133352884040429
258,0.8322879108948791,1.9196294930106637,-2.716046371769303
259,0.8343728249196414,1.9196283250057158,-2.9317298152217366
260,0.8362858840815638,1.9196272506991274,-2.9736209592942835
261,0.8397604269981421,1.9196252932091762,-2.838830987315441
262,0.8445203929686487,1.9196225983259734,-2.3293241394299624
263,0.8481605525592665,1.9196205271213047,-1.7268294956399086
264,0.8518007121498843,1.9196184469836926,-0.9947609285048562
265,0.8552735456398046,1.9196164541363847,-0.24202071553078644
266,0.858646886873197,1.919614510596555,-0.0
267,0.8622511387607115,1.9196124255403673,-0.0
268,0.8662640004836217,1.9196100937992469,-0.0
269,0.8712200957383621,1.919607198990414,-0.0
270,0.8757425258832832,1.9196045430291069,-0.0
271,0.879361931387965,1.9196024074660745,-0.0
272,0.8823942086176573,1.9196006115264295,-0.0
273,0.8852144214942359,1.9195989356216794,-0.0
274,0.888008871184515,1.9195972697360655,-0.0
275,0.8909450272696057,1.9195955136996663,-0.6290912752378119
276,0.8933109225265691,1.9195940944909486,-2.049694456277843
277,0.8952677015213123,1.9195929178427815,-2.738338118126502
278,0.8972244805160555,1.919591738612111,-2.9355832361814396
279,0.899339592438537,1.919590461059435,-2.9735088480592498
280,0.9032851755626128,1.9195880698158718,-2.7869970878265686
281,0.908967512015923,1.9195846075516494,-2.0868051417724627
282,0.9125877787066674,1.919582390353815,-1.4210988871433206
283,0.9162080453974119,1.9195801643146824,-0.6562657343034285
284,0.9196541837477882,1.9195780371300888,-0.0
285,0.9237623087935087,1.9195754908552662,-0.0
286,0.9278078839757301,1.9195729722224244,-0.0
287,0.9329866515608967,1.9195697319885618,-0.0
288,0.9372468759798354,1.9195670528996005,-0.0
289,0.9411648606087648,1.9195645782215809,-0.0
290,0.9443180350505801,1.9195625790903872,-0.0
291,0.9472319593900889,1.919560725680179,-0.0
292,0.9500296969841318,1.9195589407790954,-0.0
293,0.9523208908818354,1.9195574751085618,-0.0
294,0.954612084779539,1.9195560058952659,-1.1707242614572406
295,0.9563453260060863,1.9195548921117582,-2.1558143735875923
296,0.9580785672326337,1.9195537763007764,-2.7395532642316174
297,0.9602082082922688,1.9195524025228596,-2.9428054271248545
298,0.9623400694093338,1.9195510242470153,-2.9715324812987918
299,0.9660827907052228,1.9195485971092043,-2.789338587433732
300,0.9709789675345302,1.9195454076858738,-2.212678063072437
301,0.9746890771628006,1.9195429801032367,-1.5632577282573896
302,0.9783991867910711,1.91954054322883,-0.7945807151293649
303,0.9819008457853031,1.9195382347452796,-0.03542832317631287
304,0.9854261663346744,1.9195359023009984,-0.0
305,0.9890524667888984,1.9195334942915918,-0.0
306,0.9934357533120323,1.9195305717614073,-0.0
307,0.9978442749250824,1.919527619321369,-0.0
308,1.0019473170783262,1.919524859674364,-0.0
309,1.00578991263217,1.919522264891827,-0.0
310,1.0088700732320413,1.9195201777579263,-0.0
311,1.011730171298557,1.919518234003099,-0.0
312,1.0145936398025739,1.919516282423725,-0.0
313,1.0173234626077714,1.9195144167739948,-1.0847508113836997
314,1.01888490869651,1.9195133473682895,-1.9999357202813688
315,1.0204463547852485,1.9195122763159516,-2.660570830506413
316,1.0219521116170696,1.9195112419032723,-2.880747688914302
317,1.0236149215622874,1.9195100978202748,-2.968709050955569
318,1.0282780831556095,1.9195068794074146,-2.839386726392663
319,1.0325213703115899,1.9195039380193695,-2.396758405345572
320,1.0368720824349804,1.9195009095377316,-1.6878398136248844
321,1.0408880808557623,1.9194981026976803,-0.8698475966009511
322,1.0445672969781472,1.9194955216765743,-0.07184787874126182
323,1.0480719774817355,1.919493054590066,-0.0
324,1.0517124975748011,1.9194904830935882,-0.0
325,1.0560328349382198,1.9194874197866152,-0.0
326,1.0604868651697552,1.9194842484826002,-0.0
327,1.064631605329092,1.9194812853545997,-0.0
328,1.0684998361216524,1.9194785094341245,-0.0
329,1.071593318512388,1.9194762822120988,-0.0
330,1.0744609398240357,1.9194742118277484,-0.0
331,1.0773236301049638,1.91947213946044,-0.0
332,1.080357253157784,1.9194699373065083,-1.2105416963584879
333,1.0824173540247304,1.9194684383012812,-2.3381224871448056
334,1.0844774548916767,1.919466936427592,-2.854471454813947
335,1.0875145552973955,1.9194647170609735,-2.97696345355012
336,1.09036616861529,1.9194626275641933,-2.8856601255266954
337,1.0942102927538835,1.9194598021138114,-2.5407646856145942
338,1.0983604213966924,1.9194567405349858,-1.9290944612540764
339,1.1023292088708023,1.919453801841411,-1.163758510441545
340,1.1060099430433141,1.9194510669198739,-0.3706920192999338
341,1.1094938782126182,1.9194484697893526,-0.0
342,1.1128214039956241,1.9194459815934664,-0.0
343,1.1165182288283357,1.9194432084709987,-0.0
344,1.1214274151803802,1.9194395116284615,-0.0
345,1.1255990650470489,1.9194363573765845,-0.0
346,1.1294698918635249,1.9194334200557135,-0.0
347,1.1326284711536256,1.9194310157058494,-0.0
348,1.1355660904025588,1.9194287734977342,-0.0
349,1.1383691597998007,1.919426628546365,-0.0
350,1.1412511284413847,1.9194244176793112,-0.0
351,1.1443843803542244,1.919422007669368,-1.9075721582843341
352,1.1464873307409151,1.9194203864144732,-2.7161663853226488
353,1.1485902811276059,1.919418762168127,-2.933778689814044
354,1.150610073706845,1.9194171993335747,-2.9719746135903273
355,1.1542599393794446,1.9194143682144982,-2.813454766160706
356,1.1592202894224168,1.9194105061354014,-2.250697546732759
357,1.1628781565927508,1.9194076474927573,-1.6215670230428836
358,1.1665360237630849,1.9194047797975216,-0.8711288852895951
359,1.1700114545053004,1.9194020467418225,-0.11694183688603225
360,1.1733964773632621,1.9193993769255462,-0.0
361,1.1769947378806807,1.9193965304240663,-0.0
362,1.1811615058331346,1.9193932232419562,-0.0
363,1.1857473487644539,1.919389569856613,-0.0
364,1.1900078204235294,1.919386162929744,-0.0
365,1.1935476643402145,1.9193833229156037,-0.0
366,1.196553765713272,1.9193809044632382,-0.0
367,1.1993598667267618,1.9193786413942424,-0.0
