,time,theta,torque
0,0.0,1.9198621771937625,135.0844310926892
1,0.0005109405086288918,1.9198621771061286,81.2530891466552
2,0.0010005727963287,1.9198621768576936,54.930685696188604
3,0.0016485656207641897,1.9198621762814503,35.91633043175889
4,0.002464306686974499,1.9198621751552165,23.2527895525439
5,0.003501968938473048,1.919862173077002,14.859363236458542
6,0.004819717597867778,1.9198621693959246,9.395788242274396
7,0.006487469392253892,1.9198621630657304,5.902139168882129
8,0.008582136520634288,1.9198621524695836,3.7151943593419405
9,0.011182844018863786,1.9198621352144234,2.383024643267548
10,0.014366034511050094,1.9198621079142366,1.6019001031445208
11,0.018206096771941495,1.9198620659271561,1.168478502620604
12,0.022787412964608737,1.919862002884176,0.9460554642972572
13,0.02823125756243995,1.9198619096518723,0.843383861349761
14,0.034737308020927414,1.9198617721295894,0.8022086223383642
15,0.04264316414417069,1.9198615667711507,0.7885834054713791
16,0.05252256958015995,1.919861251165821,0.785243995568197
17,0.06537330990656005,1.9198607425841332,0.7849231065132802
18,0.082926890534975,1.9198598687216004,0.7853265046459894
19,0.10693745966848953,1.9198583383935701,0.7862741521962727
20,0.12491329282088552,1.9198569393223244,0.7868573498809864
21,0.14261973802791802,1.9198553491111612,0.7872127192676415
22,0.16090273407871736,1.9198534862155625,0.787669808853593
23,0.1799868916671191,1.9198513022684913,0.7882621896024662
24,0.19912814718584446,1.919848866127018,0.7889000696107124
25,0.21740924969356,1.9198463097573315,0.7893624752734196
26,0.2348988141996545,1.9198436540080073,0.7896607110624659
27,0.2525937272406823,1.9198407580179921,0.7900208314479095
28,0.2713577763687941,1.9198374573183679,0.7905460580748478
29,0.290892948030231,1.919833769714268,0.7912307531476266
30,0.3098548651398352,1.9198299451601712,0.7918537817974146
31,0.32749308185215076,1.9198261707675843,0.7921615196604578
32,0.3446006407768881,1.9198223102710075,0.7924035570483909
33,0.36262423295235785,1.9198180303645545,0.792816868047856
34,0.3821448546264561,1.9198131487659997,0.7934533846013527
35,0.40196620724712245,1.9198079299716408,0.7942438449273389
36,0.42030984689360296,1.9198028650207764,0.7947255601549331
37,0.43714754863117006,1.9197980168294366,0.7948567176250088
38,0.45416187743677716,1.9197929242237801,0.795115673645194
39,0.47299073536309705,1.9197870616877075,0.795628224662687
40,0.4934165123761984,1.9197804324347927,0.796442583739681
41,0.5106732634062676,1.91977461310666,0.7968027191350048
42,0.5275157207639218,1.9197687404089763,0.7970087315669744
43,0.5457203150625048,1.9197621782394454,0.7974412031385321
44,0.56572359996245,1.9197547107010224,0.7981456621569327
45,0.5836838811287122,1.919747776545149,0.7986736785375846
46,0.6010249397487741,1.9197408755641978,0.7989446520797385
47,0.6188992450645938,1.9197335506381286,0.7993265386352534
48,0.637945650872233,1.919725508806159,0.7998873284654703
49,0.6574574974317231,1.9197170173126858,0.8005814915498798
50,0.6760139082389409,1.9197087039014817,0.8011077190650261
51,0.693283163813214,1.9197007589178163,0.8013316668692355
52,0.7104231681323303,1.9196926748723775,0.8015877728934117
53,0.7288263191892941,1.9196837748548856,0.8020420442353801
54,0.7486215409434769,1.9196739470098474,0.8027307302906853
55,0.768156616592626,1.919663989576423,0.8034875532762449
56,0.785918885727525,1.9196547126394918,0.8038051206135294
57,0.802501238518909,1.9196458600974533,0.803908742903506
58,0.8198257177832292,1.9196364134508566,0.8042151619484804
59,0.8392129953125209,1.9196256021616211,0.8047897022088522
60,0.8597226458807902,1.9196138891879848,0.8056741023886085
61,0.8763468626118829,1.9196041870657996,0.8058496148540827
62,0.8926846922488324,1.9195944705095596,0.8059875709804161
63,0.9110572830823573,1.9195833287700421,0.8064247373179697
64,0.9318431780603995,1.9195704489898557,0.8072258895064939
65,0.9493031104631565,1.919559404834656,0.8076383329800443
66,0.9663432604098509,1.919548427843886,0.8078612617310001
67,0.9844330970183076,1.9195365601904717,0.8082653892497521
68,1.004000554003412,1.919523474429221,0.8088970613502583
69,1.0236665606100521,1.9195100622605454,0.8096569897935381
70,1.0417265026259437,1.919497515337703,0.8100537661664102
71,1.0583867573740235,1.9194857454457357,0.8101464445627508
72,1.075435945018295,1.919473506621004,0.810399930103773
73,1.0944095368559246,1.919459655396116,0.8109108929873817
74,1.1148254157881181,1.919444479458395,0.811728629649604
75,1.131767706310172,1.9194316715995778,0.8119955995561806
76,1.1483592981205304,1.9194189407176785,0.812153460295673
77,1.1665830301372595,1.9194047428865408,0.8125678302139769
78,1.186826587795707,1.919388707994639,0.8132886789111454
79,1.2044932315900105,1.9193744876354255,0.8137410123321196
80,1.221639917939903,1.9193604837562201,0.8139687265396355
81,1.2395586143534305,1.919345636643492,0.8143414021807734
82,1.2587768105914277,1.9193294710972693,0.8149116385394714
83,1.2782851362939958,1.9193128055965591,0.8156095884061724
84,1.2965417811833089,1.9192969757698166,0.8160548934353993
85,1.3134730247712751,1.9192820932443042,0.8161975527129675
86,1.3305202416615967,1.9192669124154964,0.816433021531791
87,1.3491312757210798,1.9192501139484577,0.8168946595512777
88,1.3691318573801134,1.919231799326902,0.8176166743850134
89,1.3864354154575511,1.9192157353769224,0.8179726044458425
90,1.4032752951436267,1.9191999067556786,0.8181508047451489
91,1.4212873652103195,1.9191827632315908,0.8185323139644406
92,1.4409427217638702,1.919163804256005,0.8191589413153199
93,1.4607141453835903,1.9191444685430536,0.8199434779005218
94,1.4786945653391024,1.9191266537254528,0.8203128606797587
95,1.495127877422765,1.9191101795542922,0.8203406396737589
96,1.511991928978781,1.919093082666606,0.820561010725721
97,1.5309708909658353,1.9190736103277717,0.8210531884212197
98,1.551565191898006,1.9190522034128357,0.8218887067009305
99,1.5683262967450255,1.919034567880506,0.822103463450761
100,1.5847920188954674,1.9190170569064386,0.8222364904727562
101,1.6030297865223133,1.9189974458870247,0.8226373385959221
102,1.6233813386767768,1.9189752944184533,0.823362283097939
103,1.6408766331369986,1.9189560262074707,0.8237675208835239
104,1.6578991878766243,1.9189370783692228,0.8239663118973916
105,1.6758271457949172,1.9189169090874922,0.8243287360429414
106,1.6951290726300958,1.918894948972456,0.8248997609053552
107,1.714627069039806,1.9188725076708582,0.8255964395752351
108,1.7327174325920205,1.9188514544042732,0.8259932555277584
109,1.7494578181928468,1.9188317731401305,0.8260877119752332
110,1.7664445894259797,1.918811606532088,0.8263081941191338
111,1.7851431157264406,1.9187891797619263,0.8267649987745642
112,1.8052480446164167,1.9187647995323414,0.827500013577826
113,1.822319817885539,1.9187438804570687,0.8277911501237893
114,1.8389842761278978,1.9187232682007003,0.8279361145716742
115,1.8570217701800644,1.9187007434726908,0.828307203550268
116,1.876853519891707,1.9186757210723058,0.8289466956576199
117,1.8946199860461672,1.9186530757867966,0.8294063568312757
118,1.9118007071302174,1.9186309714309162,0.8296192298154398
119,1.9295302842702122,1.9186079488383239,0.8299427344449402
120,1.9484224945747373,1.9185831793508832,0.8304418169034944
121,1.9677537021985503,1.9185575809037572,0.8310729797881138
122,1.9861053670105933,1.9185330423235771,0.8315295996373209
123,2.003179374686516,1.9185100045485575,0.8316871654841895
124,2.0201579157518728,1.9184868970821656,0.8318845774907123
125,2.0384307257526832,1.9184618068996646,0.8322812990855896
126,2.0580825941304934,1.9184345670616787,0.8329105698209235
127,2.0774286026189746,1.918407491836622,0.8336049114790549
128,2.094973612194528,1.9183827145651529,0.8338461203860318
129,2.1113653645098607,1.918359374555057,0.833887335407152
130,2.128549732887689,1.9183347073671646,0.8341387966326592
131,2.147812083754209,1.9183068156293304,0.8346551128669333
132,2.1681477069867254,1.9182770924226789,0.835481925144275
133,2.1845594357185627,1.9182528966754562,0.8355801417595389
134,2.2007088838742446,1.9182289063188684,0.8356583344527271
135,2.2189389627357543,1.9182016089799254,0.8360356311146014
136,2.2396082115980565,1.9181703818544837,0.8367788143834087
137,2.256851719515864,1.9181441046669658,0.8371173362452948
138,2.2737127617042274,1.9181182117223339,0.8372795954943341
139,2.291677543816165,1.9180904076419008,0.837627949686461
140,2.311126957898346,1.9180600542698751,0.8382034457578125
141,2.3306206684587627,1.918029369241419,0.8389075101878384
142,2.3484457894626254,1.9180010805872534,0.8392236721045123
143,2.3648873411111704,1.9179747926599535,0.8392466163873578
144,2.3817916991965653,1.9179475695666133,0.8394455813126048
145,2.4006859051766565,1.917916907659014,0.83990250947273
146,2.420992168466128,1.9178836783332263,0.8406757874687165
147,2.437663972519688,1.9178561826834446,0.8408507658337991
148,2.4540293183804134,1.9178290048808782,0.8409454102963027
149,2.472132156093821,1.9177987250679136,0.841303567721957
150,2.492319254847011,1.917764690592151,0.8419755780395461
151,2.5097427639482257,1.9177350877273482,0.8423476975641687
152,2.5266964923529867,1.9177060804461112,0.8425119558122777
153,2.544511272289337,1.9176753845392478,0.842832436561364
154,2.5636544316126972,1.91764215360769,0.8433555532128175
155,2.5829912235658345,1.9176083275359372,0.8439982639254825
156,2.600975913494261,1.9175766329454897,0.8443530996034565
157,2.617665704959715,1.9175470187185513,0.8444211623259987
158,2.634596397935911,1.9175167786030671,0.8446082911786268
159,2.653172514517031,1.9174833695304352,0.8450236501790951
160,2.6730754014744176,1.9174473070203883,0.8457009936370777
161,2.6900794712161966,1.9174162778380788,0.8459602522016009
162,2.706670892652474,1.9173858069545346,0.8460703426934655
163,2.7245784903431725,1.9173527029466972,0.8463973885557785
164,2.744245146041353,1.9173160887562637,0.8469867994506455
165,2.761933526764136,1.9172829264381304,0.8474106777565737
166,2.7790347380363554,1.9172506567029115,0.8475869346614967
167,2.7966592826244456,1.917217185111205,0.8478707956484763
168,2.8154005076035866,1.917181353978265,0.8483214302758226
169,2.8345857050851455,1.9171444189318467,0.8488997796705177
170,2.852852690283055,1.9171090116398457,0.8493174594055549
171,2.869888340271803,1.9170757800056153,0.8494501340414796
172,2.886797919304594,1.9170425927471952,0.8496113744491254
173,2.9049291632742715,1.9170067846075172,0.849963089924345
174,2.924383745594634,1.9169681059233317,0.8505335467698472
175,2.9435970864450365,1.916929645565383,0.8511722599053468
176,2.9611116308785967,1.9168943594052106,0.8513944539252479
177,2.977485661766312,1.9168611756360618,0.8514123154898332
178,2.994556568175378,1.9168263784434387,0.8516219164281286
179,3.013578322042821,1.916787362674188,0.8520825661296211
180,3.0336676932992166,1.9167458800007247,0.8528272256363869
181,3.050139992765381,1.9167116537227067,0.8529334525864508
182,3.066306923525795,1.9166778756378129,0.8529855026042396
183,3.0843465153754006,1.9166399669605234,0.8533139608818732
184,3.104649569863672,1.9165970266543035,0.85397451519283
185,3.121950006807267,1.9165602067120429,0.8543089856005038
186,3.138813028749951,1.9165241138458586,0.8544440719058171
187,3.156599678659208,1.9164858258816104,0.8547419534388287
188,3.1757327399906035,1.9164443893563399,0.8552447097049504
189,3.195010463516633,1.9164023770595526,0.8558630326650779
190,3.2128824563570375,1.9163631928081089,0.856179816647675
191,3.2294477486166664,1.9163266710390814,0.85620987892038
192,3.2462927016690415,1.9162893328568045,0.8563681802146025
193,3.264854306960864,1.9162479560826224,0.8567572137381483
194,3.284795582376824,1.9162032308518149,0.857426372970183
195,3.3016435777961988,1.9161652228932446,0.857636363400421
196,3.318105566569703,1.9161278905698205,0.8577116604760375
197,3.3359890805175567,1.9160871157886354,0.8580151321749145
198,3.3557120386751205,1.9160418827374803,0.8585927258137477
199,3.3732395689862926,1.9160014519290274,0.8589685926325653
200,3.39022399046661,1.9159620647847253,0.8591124591534381
201,3.4078217112216644,1.9159210381443001,0.8593747889651975
202,3.426597640442356,1.9158770207304112,0.8598141965523415
203,3.445735628279348,1.9158318951837683,0.860375639875804
204,3.4638320483790888,1.9157889845717677,0.860742393533831
205,3.4806880869201704,1.9157488043409496,0.8608245719656688
206,3.497531585959432,1.9157084507524562,0.8609645818164989
207,3.515704703578697,1.915664683670562,0.8613025623377649
208,3.535189960029114,1.9156174934421166,0.8618690533745857
209,3.554256195670681,1.9155710543290165,0.8624756206037626
210,3.571521674434704,1.9155287760919795,0.8626214741381649
211,3.5877464097575253,1.915488851164785,0.8626060206266445
212,3.6048654824737674,1.9154465203488873,0.8628059396053598
213,3.624047840906735,1.91539883716514,0.8632654247031252
214,3.6441516754175654,1.9153485791724436,0.8640261876282391
215,3.6603116798472413,1.915307969418098,0.8640287003442759
216,3.6762364578494044,1.9152677666818028,0.8640385515150252
217,3.694315209266139,1.915221904521358,0.8643483363684807
218,3.714888931468456,1.91516942623364,0.8650243524827953
219,3.731935663704694,1.915125712880248,0.8652873996535736
220,3.748627571508068,1.915082705977863,0.8653838129951896
221,3.7664532540748588,1.9150365554862585,0.865666146380851
222,3.785771373003902,1.9149862815628602,0.8661803804012785
223,3.805062722472608,1.9149358077241876,0.8668120867301089
224,3.822649278705166,1.9148895594072937,0.8670392293231011
225,3.838897625085523,1.9148466310116252,0.8669943516629041
226,3.8556797739157793,1.9148020912831916,0.8671364589011666
227,3.8744609383811377,1.9147520038131103,0.8675318337625801
228,3.894561655066082,1.9146981134388525,0.8682355821517254
229,3.9110150833480626,1.9146537829705053,0.8683260055331221
230,3.9271850384969427,1.9146100244617592,0.8683527908815405
231,3.945157292219659,1.9145611653982404,0.8686460740503666
232,3.965226335497016,1.9145063280940446,0.869255948617179
233,3.9824162392427813,1.9144591245110123,0.86954226921216
234,3.999178763812553,1.9144128870353594,0.8696374737951373
235,4.016881510873442,1.9143638334966369,0.8698984213882867
236,4.035914505283309,1.9143108386734815,0.8703593394172048
237,4.055076551810916,1.9142572171703032,0.8709331826764739
238,4.072838227403358,1.9142072746176393,0.8712041192960482
239,4.089321587797228,1.9141607199738013,0.8711983111416788
240,4.106108211649912,1.9141131043899404,0.8713233039450536
241,4.1245844013024,1.914060457692201,0.8716751782419013
242,4.1443725055157055,1.9140037952611428,0.8722941751539323
243,4.1611309216644425,1.9139555835845425,0.8724633281671179
244,4.177514614204302,1.9139082506490068,0.8725039056835477
245,4.1953021995298005,1.913856638601114,0.8727689803436761
246,4.214886700245108,1.9137995436802178,0.8732980273831682
247,4.232328361490185,1.9137484583012232,0.8736354523494003
248,4.249234948513799,1.9136987264025063,0.8737418758141726
249,4.266748930290462,1.9136469858041825,0.8739667513388716
250,4.285407086616639,1.9135916163191795,0.8743612188053124
251,4.304416598279574,1.913534940098222,0.8748754544983526
252,4.32240965074973,1.9134810487100256,0.8752008937022668
253,4.3391883675613805,1.9134305789449317,0.8752485546103687
254,4.35595877432359,1.9133799262557216,0.8753512155227969
255,4.374051027422117,1.9133250478652595,0.8756492133223128
256,4.393439854418748,1.9132659677103292,0.8761761596652751
257,4.412379993376705,1.9132079859189002,0.8767337447212435
258,4.429534840405196,1.913155239996771,0.8768340357762513
259,4.445687128324621,1.9131053771234905,0.8767860597661237
260,4.46275627922393,1.9130524734145606,0.8769501299708284
261,4.481891146733777,1.9129929100142629,0.8773719777314689
262,4.501910324190897,1.9129303026202993,0.8780970416534177
263,4.517940116248609,1.912879956608295,0.8780476453806486
264,4.533743627777902,1.9128301340693357,0.8780167355263911
265,4.551755347945881,1.9127731230582254,0.8782878445691664
266,4.572308056864882,1.9127077738846854,0.8789322052962156
267,4.589203946037281,1.9126538159229582,0.8791415688605133
268,4.605774968438962,1.912600688463747,0.8791980263222532
269,4.623535408804612,1.912543519955908,0.8794447569515214
270,4.642807034799031,1.9124812204172632,0.8799224998647267
271,4.662023831384588,1.9124188214930125,0.8805162431676788
272,4.6795048261040435,1.912361818778713,0.8806981361846511
273,4.695640248238372,1.9123090005908396,0.880610742165881
274,4.712312159594799,1.9122542212318185,0.8807105590993903
275,4.731030384991884,1.9121924697753665,0.8810643288780097
276,4.751118238217957,1.9121259073107124,0.8817399148821341
277,4.767429308977483,1.912071636452552,0.8817771513947925
278,4.783487211637639,1.9120180125586062,0.8817655187624913
279,4.801394528465106,1.911957983924806,0.8820219771161699
280,4.821431315618942,1.9118905307168452,0.8825986439221984
281,4.838480137427188,1.911832898213683,0.8828351889388859
282,4.855114482469487,1.9117764555958532,0.8828888344365067
283,4.872720901099269,1.91171648716719,0.883106806967997
284,4.89173737771135,1.9116514530770858,0.8835348466727442
285,4.910881882941211,1.9115857051208966,0.8840897327372735
286,4.92852111505495,1.9115248813936905,0.8843144748588075
287,4.94480988704285,1.911468505222475,0.8842440001548388
288,4.96145113060572,1.911410701636406,0.8843276243920917
289,4.979886076270743,1.911346422588201,0.8846424075597107
290,4.999692857020238,1.9112770729997073,0.8852414474865345
291,5.01626940504691,1.9112188045736134,0.8853480953788423
292,5.032508773289579,1.9111615189965698,0.88534612497532
293,5.050261880933956,1.911098664259505,0.8855764243456371
294,5.069882738522523,1.9110289178897093,0.886083715752609
295,5.0871473539766665,1.910967304902643,0.8863588598165819
296,5.10392110099825,1.9109072262405038,0.8864207294638208
297,5.121402233469243,1.910844385696753,0.8866122378818628
298,5.140090200455052,1.9107769490543975,0.8869861399509259
299,5.159038248524544,1.9107083016829365,0.8874717652075544
300,5.1768397139378415,1.9106435583880328,0.8877307096591861
301,5.193424303736569,1.9105830228144196,0.8877180555000415
302,5.210124310876356,1.9105218533067796,0.8877906503026841
303,5.2282452099156655,1.910455237731151,0.888062035972278
304,5.247644145221216,1.9103836450169323,0.8885648730301361
305,5.266472500188177,1.9103138820842527,0.8890851351514156
306,5.283425650563532,1.91025083440251,0.8891118388485414
307,5.299423186874073,1.910191138171776,0.8890184527555975
308,5.3164667693043475,1.9101273221318138,0.8891550201614754
309,5.3356385881040485,1.9100552703708975,0.8895515835444384
310,5.355596413180141,1.9099799640872799,0.8902537451120918
311,5.371438492973488,1.9099199691934925,0.8901314385868077
312,5.3870698330648565,1.9098605827667885,0.890055188261234
313,5.405033398715936,1.9097921030155365,0.8902860971718701
314,5.425684719493973,1.9097130693459738,0.8909068057266255
315,5.442393676009065,1.9096488821708226,0.891055492681571
316,5.4588427793789815,1.9095854823720229,0.8910696419085615
317,5.476625567619846,1.9095167066594043,0.8912892238159021
318,5.495954611958153,1.9094416730230033,0.8917512827830363
319,5.515076839474407,1.909367157351082,0.8923194640340881
320,5.532311483376244,1.9092997542684114,0.8924148019136314
321,5.548233029021146,1.90923728174687,0.8922685149643933
322,5.564888885914559,1.9091717172571725,0.8923424821727676
323,5.583771469683239,1.9090971266635155,0.8926817577198459
324,5.603932710940098,1.9090171789484938,0.8933695591646788
325,5.619899005337864,1.90895364144678,0.8932897518048301
326,5.63568383764537,1.9088906308666171,0.8932243770246296
327,5.653620450590313,1.9088187949726185,0.8934455980121639
328,5.673994341832178,1.9087368933630917,0.894029383631237
329,5.690755626834425,1.9086692712066209,0.8941806963402072
330,5.707207819624368,1.9086026825949067,0.8941864246946558
331,5.724882143929823,1.9085309117325076,0.8943810867780622
332,5.744117780668226,1.9084525230190346,0.894817024208527
333,5.7632418195657005,1.9083743018599961,0.8953737852186211
