,time,theta,torque
0,0.0,1.9198621771937625,-135.0844310926892
1,0.0005100462008367194,1.9198621771064353,-81.3859722871463
2,0.0010012760629757738,1.919862176857221,-55.09884137830237
3,0.0016805208506791226,1.9198621762457397,-35.63860453066326
4,0.0025383572876580044,1.9198621750308622,-23.082615634559946
5,0.003663299705543798,1.9198621726889584,-14.895042810686766
6,0.005103847011207229,1.919862168449437,-9.845069994307638
7,0.006898667197775031,1.9198621612180065,-6.831487154567643
8,0.008995812982366912,1.9198621500286266,-5.010556863592223
9,0.01126358415034311,1.9198621346060534,-3.705976899062606
10,0.013534508607213239,1.9198621157021232,-2.52444759440538
11,0.015705736718673636,1.9198620943904448,-1.3789204550963476
12,0.017805242709255025,1.91986207077286,-0.3566538614993809
13,0.020054730636980087,1.9198620421841024,-0.0
14,0.02276600475777283,1.9198620032115414,-0.0
15,0.02528240475393,1.9198619626242392,-0.0
16,0.02731941288779837,1.9198619266555095,-0.0
17,0.029188409824659433,1.9198618912028482,-0.5209678397088898
18,0.031268852446757846,1.9198618489811212,-1.822339400331468
19,0.03359484202087927,1.9198617983355664,-2.6103171567063264
20,0.03585917967707086,1.9198617455432638,-2.5083092773954525
21,0.0384229617212271,1.919861681614298,-1.89975295280323
22,0.04081631731031912,1.9198616179523293,-0.9880607611146076
23,0.04304817235486351,1.9198615551209532,-0.08011819224913982
24,0.04539758562764058,1.9198614853669609,-0.0
25,0.04805014489384148,1.9198614021586535,-0.0
26,0.050520273666843044,1.919861320425316,-0.0
27,0.052754063650660286,1.9198612429848438,-0.0
28,0.05477584962511072,1.9198611700058454,-0.6309726560214456
29,0.056986034964696515,1.919861087086469,-2.0110294202140553
30,0.059314756279143,1.9198609961717876,-2.612598885232235
31,0.06233245257452186,1.919860872943113,-2.243466746335096
32,0.06485723571570065,1.9198607651451955,-1.4292419639041472
33,0.06738201885687944,1.9198606530675153,-0.39225957695946
34,0.06976484469672609,1.9198605433658762,-0.0
35,0.07270286654125487,1.9198604028560442,-0.0
36,0.07511480094148439,1.9198602831744387,-0.0
37,0.0771002162985001,1.9198601817261507,-0.0
38,0.07868341846622767,1.9198600989330243,-0.0
39,0.08026662063395525,1.919860014457033,-0.8740803644618454
40,0.08227796749251244,1.919859904709186,-2.101897601776073
41,0.08452928932316635,1.9198597786456921,-2.6222755921632808
42,0.08718772241712919,1.9198596254042535,-2.3101334350012794
43,0.0898344225314935,1.919859468125563,-1.4907320022579353
44,0.09221822050861483,1.9198593224440774,-0.5133060643836852
45,0.09449880560135676,1.919859179499236,-0.0
46,0.09699030163929433,1.9198590193433378,-0.0
47,0.09955566454970698,1.9198588500842415,-0.0
48,0.10155325030144492,1.9198587152264002,-0.0
49,0.10335668407335016,1.9198585911746249,-0.0
50,0.10516900189776551,1.9198584643119094,-0.7208232281528228
51,0.10714782668366625,1.9198583232751971,-1.9598240971981724
52,0.10944840894777552,1.919858156000801,-2.603700703420366
53,0.11232241094287998,1.9198579420407265,-2.302973032217511
54,0.11483261754752447,1.91985775062677,-1.5377627131003413
55,0.11734282415216896,1.9198575549821064,-0.5151398709908953
56,0.11968987279566033,1.9198573682267435,-0.0
57,0.12226359267176713,1.9198571591833973,-0.0
58,0.12485605621243163,1.9198569441213933,-0.0
59,0.1266530460766759,1.9198567924011456,-0.0
60,0.12834984957905168,1.9198566471494398,-0.0
61,0.1300870803021204,1.9198564964342517,-0.5780813340303567
62,0.13209238445109459,1.9198563199425556,-1.851423091380413
63,0.13443847628079364,1.919856110030036,-2.5857610076695123
64,0.13693306472420044,1.9198558827770582,-2.3990836915638907
65,0.1395898841712931,1.9198556361503047,-1.6715778306606155
66,0.14200175623625438,1.9198554081572696,-0.7088032485252103
67,0.14426599354109676,1.919855190565495,-0.0
68,0.14640455746334355,1.919854981889781,-0.0
69,0.1489645677793782,1.9198547280521385,-0.0
70,0.1511167039280517,1.9198545112525607,-0.0
71,0.1531521748460581,1.9198543033438131,-0.0
72,0.15504892030883066,1.9198541071008648,-0.4712868886293754
73,0.15728267933936965,1.9198538728918484,-1.8868224780283078
74,0.15968597243248228,1.9198536171657672,-2.596224011096989
75,0.16251995117016813,1.9198533106288542,-2.3142992731283782
76,0.1650266632893563,1.9198530349960075,-1.5625780463508552
77,0.1675333754085445,1.919852755143883,-0.5449285932374767
78,0.1698729466421288,1.9198524901448735,-0.0
79,0.17235591865645522,1.919852204882883,-0.0
80,0.1749226345156654,1.9198519056481993,-0.0
81,0.17691821395425433,1.9198516699413963,-0.0
82,0.17872736399671463,1.919851453943561,-0.0
83,0.18054098251233938,1.9198512352062669,-0.7013556523252119
84,0.1825331870059112,1.9198509923844072,-1.9508785811964375
85,0.1848425465764453,1.9198507075704987,-2.60207987854985
86,0.18770455074186584,1.9198503496295267,-2.305689549369459
87,0.19021211642989483,1.9198500314961962,-1.5443056593193978
88,0.1927196821179238,1.9198497091404962,-0.5236293328642688
89,0.19506366350381124,1.9198494039958918,-0.0
90,0.1976087294342024,1.9198490684958442,-0.0
91,0.20019237664907494,1.9198487234607866,-0.0
92,0.20198787280864047,1.9198484810399334,-0.0
93,0.2036959686286782,1.9198482484101664,-0.0
94,0.20543540440216237,1.9198480094986345,-0.5452104918990115
95,0.20746938122537834,1.919847727554869,-1.8387356504957708
96,0.20982796948770707,1.919847397135802,-2.584082060724339
97,0.21230263886517267,1.9198470464386699,-2.4034349963801143
98,0.21494778158321387,1.919846667035721,-1.6854376484701892
99,0.21735493220113755,1.9198463176853355,-0.7272527782120207
100,0.21961432791843302,1.919845986238381,-0.0
101,0.2217285778676115,1.919845672978971,-0.0
102,0.22430236573980702,1.9198452875802632,-0.0
103,0.22646831020928837,1.9198449598048488,-0.0
104,0.2285178571229497,1.9198446467429218,-0.0
105,0.2304186979800014,1.9198443538739516,-0.4540914174365699
106,0.2326719980250723,1.9198440035572601,-1.8825567783205517
107,0.23508339108105605,1.9198436248850268,-2.596092334989026
108,0.23791779588932635,1.9198431747925107,-2.3143060015852637
109,0.2404250561053286,1.9198427721520235,-1.5624547148992605
110,0.24293231632133086,1.9198423652896697,-0.5445780830840109
111,0.2452721627714667,1.9198419817857115,-0.0
112,0.247756954494103,1.9198415704993763,-0.0
113,0.2503247469186734,1.9198411411179395,-0.0
114,0.25232092810069184,1.9198408042609025,-0.0
115,0.2541294268981697,1.9198404967647955,-0.0
116,0.25594290457773533,1.9198401862164167,-0.7036679168951053
117,0.25793337985441944,1.9198398428154915,-1.951879221676039
118,0.2602408106662674,1.9198394414024402,-2.6021073985911256
119,0.26310131695626127,1.919838938809077,-2.305984939300878
120,0.26560819134143715,1.9198384938305875,-1.5450660589386842
121,0.26811506572661303,1.9198380446312207,-0.524740838989862
122,0.2704584829885308,1.9198376209041956,-0.0
123,0.27299962314321785,1.9198371572573476,-0.0
124,0.2755821402879737,1.9198366816173498,-0.0
125,0.27737774914741814,1.9198363482675773,-0.0
126,0.2790876532144965,1.9198360288156462,-0.0
127,0.2808275377548264,1.9198357017468686,-0.541085560813931
128,0.28286511684814475,1.919835316131668,-1.8371343725227574
129,0.28522534749218464,1.9198348659681708,-2.5838368199548505
130,0.28769731440731217,1.91983439048173,-2.4039198709536844
131,0.2903408021814748,1.9198338774614974,-1.6871693301799853
132,0.2927471884521162,1.9198334063742257,-0.7296429371980784
133,0.2950058192583016,1.9198329606736666,-0.0
134,0.2971168798343415,1.91983254099533,-0.0
135,0.29969224283434004,1.9198320249602647,-0.0
136,0.30185993738931893,1.9198315871581193,-0.0
137,0.30391136276027725,1.9198311699315356,-0.0
138,0.30581265582720474,1.9198307807153203,-0.4513494568739478
139,0.3080685031860575,1.9198303157681245,-1.8815581445567966
140,0.31048028540260586,1.919829814900607,-2.5959008112503033
141,0.313311008470118,1.9198292220450843,-2.3152566013626332
142,0.31581724663455835,1.919828692655856,-1.5645946266619672
143,0.3183234847989987,1.9198281590471835,-0.5473903138665507
144,0.320662395056377,1.9198276572583448,-0.0
145,0.32313898676920316,1.9198271219256289,-0.0
146,0.3257042243546235,1.9198265630873017,-0.0
147,0.32769833164771556,1.9198261256161566,-0.0
148,0.3295102976313126,1.9198257257870566,-0.0
149,0.33132471228965615,1.9198253232075275,-0.692419950148045
150,0.3333227986056031,1.9198248773164515,-1.9465628777554629
151,0.3356350920941239,1.9198243579593333,-2.601266892143925
152,0.3384879842618277,1.9198237122302473,-2.3080772008865136
153,0.3409934703945049,1.9198231406240596,-1.5496365352374324
154,0.3434989565271821,1.9198225648005578,-0.5304491940641848
155,0.34584050416183654,1.9198220228417724,-0.0
156,0.3483636345076713,1.9198214347319777,-0.0
157,0.3509410799352357,1.9198208295458787,-0.0
158,0.3527386755312743,1.9198204048272205,-0.0
159,0.354458085242393,1.9198199965501777,-0.0
160,0.356200994265784,1.9198195806660234,-0.5247869263776689
161,0.3582557487813594,1.9198190877495216,-1.8324940363738265
162,0.36062293130839657,1.9198185163680586,-2.5833385427390327
163,0.3630931036798229,1.9198179161131692,-2.404069289298007
164,0.365735658331855,1.919817269430413,-1.6881749070202277
165,0.3681417415169094,1.9198166765358187,-0.731032632267858
166,0.37040015751283534,1.9198161164896241,-0.0
167,0.372509571797039,1.9198155902978578,-0.0
168,0.3750864859853634,1.919814943431544,-0.0
169,0.37725525396644455,1.9198143955618094,-0.0
170,0.3793077002093914,1.9198138741663435,-0.0
171,0.38120933111774385,1.9198133885572513,-0.4502030213697144
172,0.38346675601722074,1.9198128089366933,-1.881438754816553
173,0.38587962926395325,1.9198121856169548,-2.595879203727981
174,0.38871330366947476,1.9198114485963647,-2.314339343060517
175,0.39122026394537446,1.9198107920537233,-1.5627566059099025
176,0.39372722422127415,1.9198101312879101,-0.5450560320507656
177,0.396066642161745,1.9198095108723632,-0.0
178,0.39854967506608696,1.9198088483467908,-0.0
179,0.40111655669863305,1.9198081590933067,-0.0
180,0.40311208229623113,1.9198076202000702,-0.0
181,0.40492138092834185,1.9198071292845353,-0.0
182,0.4067352809891208,1.919806634912257,-0.7004708642029995
183,0.4087279210107356,1.9198060892763968,-1.9503740841840664
184,0.4110384399805664,1.9198054532563757,-2.6018346262680034
185,0.4139030024690167,1.9198046597428167,-2.30464419120518
186,0.4164111490409265,1.919803960432178,-1.5424617812314632
187,0.41891929561283636,1.9198032568938748,-0.5213842020836593
188,0.4212640595587237,1.919802595361017,-0.0
189,0.4238160570456582,1.9198018711617761,-0.0
190,0.42640183829855405,1.9198011329112268,-0.0
191,0.4281972601916135,1.9198006176680402,-0.0
192,0.42990223144448,1.9198001263765232,-0.0
193,0.4316408181375025,1.9197996233867807,-0.5515567469918975
194,0.43366905224330116,1.919799034031894,-1.8410904608421237
195,0.43602494295189087,1.9197983459971868,-2.5841410558000657
196,0.4385024171501821,1.9197976184301178,-2.4024195281362397
197,0.44114891892617303,1.919796836667099,-1.6829881936695856
198,0.44355651138350893,1.9197961213874133,-0.7241871589781032
199,0.44581633916691116,1.9197954464629639,-0.0
200,0.4479342681083315,1.9197948108023384,-0.0
201,0.4505052917773555,1.9197940351014857,-0.0
202,0.4526691331622796,1.9197933788079014,-0.0
203,0.4547166380098447,1.9197927549012765,-0.0
204,0.45661683597961644,1.9197921733602457,-0.4554552920667842
205,0.4588680925646189,1.919791481239343,-1.8826480632758467
206,0.4612793483297273,1.9197907361501652,-2.595832024027186
207,0.46411576925834847,1.919789854680325,-2.3133586987818346
208,0.4666232409741572,1.9197890709338532,-1.560911542033878
209,0.4691307126899659,1.9197882829609143,-0.5428045044010418
210,0.4714708474640588,1.9197875437607592,-0.0
211,0.47395972700688255,1.9197867535355082,-0.0
212,0.4765281257712113,1.9197859336968306,-0.0
213,0.4785251211983079,1.919785293186929,-0.0
214,0.48033208741550193,1.9197847113159736,-0.0
215,0.48214543224886813,1.9197841251843524,-0.7082291846402532
216,0.4841330875917694,1.919783480170426,-1.95417632643832
217,0.4864400072308031,1.919782728221864,-2.602284895361646
218,0.4893101198037676,1.919781787703962,-2.3028541020438302
219,0.49181919128191537,1.9197809609600693,-1.5388286930664512
220,0.49432826276006314,1.9197801299837274,-0.5169527858842988
221,0.49667432088401947,1.9197793491666162,-0.0
222,0.4992406266980556,1.9197784908086146,-0.0
223,0.5018307291510606,1.9197776200015881,-0.0
224,0.5036267861519588,1.91977701350883,-0.0
225,0.5053261466538632,1.9197764376716893,-0.0
226,0.5070637092953406,1.9197758468819437,-0.5674085640045609
227,0.5090782432300197,1.9197751593779133,-1.847293403375031
228,0.5114280540303495,1.919774354005563,-2.5848307798398293
229,0.5139160459112646,1.919773497226612,-2.3999146871065298
230,0.5165686639513006,1.9197725791716855,-1.675449018985877
231,0.518978744069663,1.919771740955507,-0.7142132883156986
232,0.5212412094347516,1.9197709505249654,-0.0
233,0.5233720976657994,1.9197702029156132,-0.0
234,0.5259360777936588,1.9197692993113726,-0.0
235,0.5280926259960339,1.9197685358725796,-0.0
236,0.5301326174226775,1.919767810817629,-0.0
237,0.5320306491677899,1.9197671337049416,-0.4644914302572044
238,0.5342725841926877,1.9197663307858484,-1.8854402954605445
239,0.5366790216846283,1.9197654651912484,-2.5958392664429435
240,0.5395152108109063,1.9197644400155573,-2.313030264334872
241,0.542022322319699,1.9197635292846014,-1.5605057283121833
242,0.5445294338284918,1.9197626143265456,-0.542499117701385
243,0.5468695333370374,1.9197617565045477,-0.0
244,0.5493591676413309,1.9197608398235189,-0.0
245,0.5519277960469905,1.9197598896878767,-0.0
246,0.5539249233218132,1.9197591478842337,-0.0
247,0.5557316356070656,1.9197584744963998,-0.0
248,0.5575449255272258,1.9197577964495973,-0.7087584246369241
249,0.5595327035138521,1.9197570506152903,-1.9546915521463855
250,0.5618397423428971,1.9197561816590394,-2.602284673819047
251,0.5647119441832044,1.9197550948290079,-2.3020081956461733
252,0.567221408156153,1.9197541407158076,-1.537254543262649
253,0.5697308721291016,1.9197531823668914,-0.5150599389044412
254,0.5720776080960571,1.9197522823301227,-0.0
255,0.5746506350302388,1.9197512912473116,-0.0
256,0.577243254789543,1.9197502881134834,-0.0
257,0.5790400845509905,1.9197495902332715,-0.0
258,0.5807371703624755,1.919748929098866,-0.0
259,0.5824744565826092,1.9197482502968255,-0.5752920003849429
260,0.5844824280966222,1.9197474632017324,-1.850516545634368
261,0.586829291329938,1.9197465398285924,-2.5851475382884934
262,0.5893235396353903,1.919745554405404,-2.398324212325388
263,0.5919798512427544,1.9197445003526865,-1.6708335602937958
264,0.5943913634419562,1.9197435393282662,-0.7081751662067742
265,0.5966553771973906,1.9197426335236292,-0.0
266,0.5987943424163973,1.9197417745815124,-0.0
267,0.6013547562141894,1.919740742351298,-0.0
268,0.603506847790423,1.919739871324581,-0.0
269,0.6055421854861329,1.9197390446852625,-0.0
270,0.6074389503093268,1.919738271817515,-0.4702331895263692
271,0.6096741746380877,1.9197373579319816,-1.8867634605364072
272,0.6120779363101743,1.9197363713876616,-2.5957371283594277
273,0.6149138679994585,1.9197352024746444,-2.312822156520603
274,0.6174205268005983,1.91973416477589,-1.5603945793543483
275,0.6199271856017382,1.9197331228494419,-0.5425680837613353
276,0.6222670935702336,1.9197321464199644,-0.0
277,0.624756351096017,1.9197311036235476,-0.0
278,0.6273248313560893,1.9197300232686758,-0.0
279,0.62932179609826,1.9197291802374439,-0.0
280,0.631128675685913,1.919728415139409,-0.0
281,0.6329418721046363,1.919727645158146,-0.7075321769277825
282,0.6349297638150869,1.919726798449482,-1.9537209643860949
283,0.6372375766226045,1.9197258121402747,-2.6020194122509697
284,0.6401089310212156,1.9197245799818847,-2.3021000669763003
285,0.6426180831561643,1.9197234987094878,-1.5376817309704216
286,0.645127235291113,1.9197224132002106,-0.5156805577599457
287,0.6474735215428414,1.919721394316605,-0.0
288,0.6500433037597934,1.9197202741280264,-0.0
289,0.6526344996496151,1.919719140104996,-0.0
290,0.6544308933713952,1.919718351270595,-0.0
291,0.6561290227685784,1.9197176035892212,-0.0
292,0.6578662943719655,1.919716836665245,-0.5707325192622591
293,0.6598783266884041,1.919715945908675,-1.8488232703243668
294,0.6622278218561894,1.91971490230378,-2.584870481262647
295,0.6647218413747927,1.9197137904384387,-2.3981092297687105
296,0.6673779205664756,1.9197126017213229,-1.6707245013308691
297,0.6697893182169008,1.9197115183979305,-0.7081374108643741
298,0.6720532561743616,1.919710497758708,-0.0
299,0.67419211866599,1.9197095303372484,-0.0
300,0.6767523949623477,1.9197083682583562,-0.0
301,0.6789045390508113,1.919707388012392,-0.0
302,0.680939994947839,1.9197064580460275,-0.0
303,0.6828367407459575,1.9197055889436847,-0.4695769064238541
304,0.6850735151751065,1.9197045609258323,-1.887074781544019
305,0.6874769485285005,1.9197034525580028,-2.595649807745324
306,0.6903136326333649,1.9197021393887888,-2.312386067795418
307,0.6928203029976013,1.919700974482371,-1.5597016749765822
308,0.6953269733618378,1.919699805345825,-0.5418005329348201
309,0.6976668241449834,1.9196987101983318,-0.0
310,0.7001575420321723,1.91969754038863,-0.0
311,0.7027267474661666,1.9196963293396618,-0.0
312,0.7047241994550574,1.9196953847279927,-0.0
313,0.7065304977779674,1.9196945282015039,-0.0
314,0.7083436459940097,1.9196936662175845,-0.7095356645034359
315,0.7103305594633922,1.919692719082525,-1.9548736480885138
316,0.712637526536234,1.919691616047303,-2.6020612946022745
317,0.7155124452406331,1.9196902364406434,-2.300894469124524
318,0.7180223766826233,1.9196890274325493,-1.5353257399879678
319,0.7205323081246134,1.9196878141824496,-0.512765154306315
320,0.7228794054782725,1.9196866758048508,-0.0
321,0.7254594745763547,1.9196854201522464,-0.0
322,0.7280540430385584,1.9196841529226487,-0.0
323,0.7298516161096091,1.9196832723002417,-0.0
324,0.7315465915364565,1.9196824399466588,-0.0
325,0.7332835455221574,1.9196815849714046,-0.5828282684678198
326,0.735285701566922,1.9196805969357928,-1.8538657844427806
327,0.7376311895830504,1.9196794360369815,-2.5854412729672074
328,0.740136641531059,1.919678191871442,-2.395286711707321
329,0.7427993776744355,1.9196768649671125,-1.6624802236607132
330,0.7452134957969495,1.9196756578277698,-0.6973152762960737
331,0.747480194222189,1.9196745208301897,-0.0
332,0.7496338945380293,1.919673437307482,-0.0
333,0.7521877329037429,1.9196721484273025,-0.0
334,0.7543315316069714,1.9196710630957845,-0.0
335,0.756358464237408,1.9196700340824437,-0.0
336,0.7582525823374079,1.919669069993776,-0.479819459643229
337,0.7604771082103322,1.9196679346448693,-1.8892644634885019
338,0.7628775188322732,1.9196667057891859,-2.595611246698577
339,0.7657172482194107,1.9196652470186732,-2.311127727200135
340,0.7682244514326566,1.9196639545517282,-1.5573822761194058
341,0.7707316546459025,1.9196626578501863,-0.5390121708218235
342,0.7730723235739558,1.9196614434564723,-0.0
343,0.7755711498760073,1.9196601429336104,-0.0
344,0.7781424994144146,1.9196588002742518,-0.0
345,0.7801421251009797,1.9196577530680776,-0.0
346,0.7819457753136477,1.919656806183694,-0.0
347,0.7837587313444315,1.9196558522051823,-0.7204878199509425
348,0.7857390155530689,1.9196548076480178,-1.960454918320784
349,0.7880420496597736,1.9196535895240867,-2.602792190877724
350,0.790927338189661,1.9196520583902659,-2.2974783931279026
351,0.7934390952890944,1.9196507209111506,-1.5284611729565847
352,0.7959508523885278,1.9196493791810847,-0.5044093717158133
353,0.7983006406370414,1.9196481201228217,-0.0
354,0.8009104912187531,1.9196467173575436,-0.0
355,0.8035145954441595,1.919645313106237,-0.0
356,0.8053181154370551,1.9196443378879833,-0.0
357,0.8070072982930971,1.9196434225074444,-0.0
358,0.8087457296839419,1.919642478431039,-0.6247462536785432
359,0.8107190869866692,1.9196414043072143,-1.8742591748345907
360,0.8130497784079661,1.9196401323017016,-2.5882902724135146
361,0.8156060307400066,1.9196387329839517,-2.3833732512171055
362,0.818299820904768,1.919637253611051,-1.6263312291643308
