,time,theta,torque
0,0.0,1.9198621771937625,-4.3763489352525236
1,0.002928351131237787,1.9169336493312692,-2.342698980939239
2,0.0058418131475905756,1.9140197658547529,-1.4477522332082526
3,0.009640907476371682,1.9102198961414447,-0.889903145213797
4,0.012048034579658869,1.9078121850430534,-0.6784922198816017
5,0.012415411000544824,1.9074447144192812,-0.6509762048573206
6,0.01278278742143078,1.9070772425744429,-0.6936174802639329
7,0.013154906581930356,1.9067050254465172,-0.8126694017168358
8,0.01448299886798767,1.9053765701661127,-1.16257579742331
9,0.017207837878743762,1.9026509009835724,-1.5269497370599354
10,0.01986195226148399,1.8999958457912502,-1.6505538640717818
11,0.023204200392720205,1.896652211515737,-1.7167474819889394
12,0.027160451636132683,1.8926940209814704,-1.2771047290191244
13,0.03080296901445408,1.8890494906268338,-0.7807793337233888
14,0.03547212176731776,1.8843775574206019,-0.4910461943162465
15,0.03656267317964831,1.8832863319818363,-0.44045263398675993
16,0.037653224591978854,1.882195098733275,-0.39185535997210613
17,0.03834766093636878,1.8815002243183558,-0.6184620179657857
18,0.03901264808823497,1.8808348141528677,-0.8222599712176696
19,0.04091509909008638,1.8789311238249038,-1.2443962594690237
20,0.04365720619500876,1.8761871307574056,-1.5040366333003337
21,0.046339061543755763,1.873503298517881,-1.599164403074536
22,0.0498579560325674,1.869981598262319,-1.6658625133118392
23,0.0516498728200164,1.8681881602101738,-1.2466327540203817
24,0.0534417896074654,1.8663946732372774,-0.9300181185236541
25,0.05730428669005907,1.8625286701853516,-0.5600447987706485
26,0.06228976413014565,1.8575384977154121,-0.31402551227757114
27,0.0626434040412864,1.8571845192959149,-0.2987574903055646
28,0.06299704395242717,1.8568305402671237,-0.3494893499684396
29,0.06335316350310771,1.8564740785326732,-0.473333860004567
30,0.0646318384559514,1.8551941667152019,-0.8557698709095103
31,0.0675796040426818,1.8522434735720625,-1.3419540067752758
32,0.07043431906617359,1.8493857899836224,-1.4976219805070785
33,0.07357623927700445,1.8462404321076034,-1.5709044017055949
34,0.07459271417112853,1.845222805369904,-1.589773416267915
35,0.07513852632628305,1.844676366568161,-1.599733308209451
36,0.07568433848143757,1.8441299220395604,-1.5255616937630985
37,0.07623243739133649,1.8435811825931165,-1.3689782335429168
38,0.077918809295854,1.841892810371882,-1.0012409642296392
39,0.08154316134033517,1.8382640472310219,-0.5640521271546256
40,0.08646515580113417,1.8333359033761354,-0.2795795991782562
41,0.08752000477687229,1.8322797199897713,-0.2312915548530328
42,0.08809933003093967,1.8316996599454611,-0.31281498014426107
43,0.08862960886939718,1.8311687070972018,-0.49110800971477037
44,0.09025682849335467,1.8295394050787257,-0.9331875699208846
45,0.09306022035487513,1.8267323489146776,-1.314487237051082
46,0.09579034395353457,1.8239985378037353,-1.4425673164863608
47,0.09905463208816116,1.8207296705900737,-1.5129932535046964
48,0.1029398375933779,1.816838764715518,-1.0747301288759679
49,0.10643855366956814,1.8133347367998232,-0.5693636342793201
50,0.11123359614711706,1.8085322661790533,-0.24168901199386575
51,0.11214185123557452,1.807622591638495,-0.19510215549157026
52,0.11305010632403198,1.8067129142562628,-0.15038493343757142
53,0.1137096350357844,1.8060523511343627,-0.3679304231257693
54,0.11431349548078687,1.8054475419894245,-0.5559388662559152
55,0.11606712369128629,1.8036911410400205,-0.9769996130089835
56,0.11890275932845626,1.8008509405389486,-1.2881281531619657
57,0.12161034835014867,1.798138877513748,-1.394477703998219
58,0.12499878447815493,1.7947446694851823,-1.4645338097926388
59,0.12600761382434442,1.7937340833140594,-1.32960254250186
60,0.12691779866993927,1.7928222994067773,-1.0902223968403977
61,0.12921351382389232,1.7905225057720882,-0.6749620773779873
62,0.13434398453442994,1.7853827738212609,-0.23615455507347455
63,0.13612030280153728,1.783603220655608,-0.1452796122957067
64,0.13789662106864461,1.7818236587523275,-0.06281028724180368
65,0.138410894871585,1.78130844464928,-0.135304244956899
66,0.13887625317139035,1.7808422349046242,-0.2934201760783461
67,0.140388295729059,1.7793274175033162,-0.7248627837927475
68,0.14308438851058916,1.7766263207076176,-1.1523551324697887
69,0.14578048129211932,1.7739251245530552,-1.3043246845902372
70,0.14886233118004752,1.770837302539767,-1.3814539348230515
71,0.14992032276234374,1.7697772251069448,-1.4025449197039794
72,0.15047711083737086,1.7692193318409422,-1.4134634465485691
73,0.151033898912398,1.768661433380958,-1.3367381561544927
74,0.15158390869927396,1.7681103218861147,-1.1766917340071683
75,0.15325598199243068,1.7664348749132348,-0.8034309041889286
76,0.15677712095359134,1.7629065487146809,-0.3594516071990156
77,0.1619075518217023,1.7577655397916225,-0.0480771739601156
78,0.16313799577415944,1.7565325497930464,-0.0
79,0.16354988439385257,1.7561198085230374,-0.04685991879205191
80,0.16392913517537738,1.755739772431925,-0.17699200821558964
81,0.16526480988221126,1.7544013272882442,-0.5759463336156962
82,0.1683971062921131,1.7512624729620767,-1.1014779343774672
83,0.17148414025114522,1.7481688522093513,-1.2641478428948685
84,0.1745442329513047,1.7451020897454903,-1.3375508781452994
85,0.17532767138469213,1.7443169202023787,-1.3536916899055385
86,0.17611110981807956,1.7435317408712037,-1.2468694404745102
87,0.1768391807003602,1.7428020439694476,-1.0436708762352291
88,0.17881856959720535,1.7408182036346673,-0.6415372413732716
89,0.1828879163619629,1.736739617165394,-0.20669948013521816
90,0.18797722437807998,1.7316386800818806,-0.0
91,0.18829865096345227,1.731316518000525,-0.0
92,0.18862007754882457,1.7309943558293983,-0.0
93,0.18893978939493333,1.7306739122293913,-0.057704239725340827
94,0.1898983392787564,1.7297131670184267,-0.3618820266958769
95,0.19224266196178896,1.7273634513779748,-0.8899568516462719
96,0.19500754781622107,1.7245921299906581,-1.1464316073739418
97,0.1977064334504235,1.7218868634257976,-1.2437963102194651
98,0.19928246332024566,1.7203070585047784,-1.2805717746227328
99,0.20085849319006782,1.718727216237072,-1.3137612481434549
100,0.20272211984601216,1.7168590352772592,-0.8669120253967815
101,0.2045857465019565,1.7149908191642815,-0.5274901536533277
102,0.2084765367692109,1.7110903819704923,-0.1350934566055583
103,0.21054092520481918,1.7090208574015944,-0.008828478777066636
104,0.21260531364042745,1.706951328455817,-0.0
105,0.21318550376451828,1.7063696930387413,-0.0
106,0.21347053065983987,1.706083956031408,-0.0
107,0.21375555755516146,1.7057982189645067,-0.0
108,0.21404519864572746,1.7055078561447616,-0.0
109,0.2151646988635201,1.7043855651362758,-0.31725992527285785
110,0.2174894368989797,1.7020550104309795,-0.8400109499091621
111,0.22022880616393248,1.6993087180473214,-1.0992084562019215
112,0.22292778126419888,1.6966028281749406,-1.1998695352305955
113,0.22448504381201842,1.6950415299351884,-1.2377794498760748
114,0.22604230635983796,1.693480196716193,-1.2719707267379603
115,0.22791403756928855,1.6916035285280198,-0.8220601129327707
116,0.22978576877873913,1.689726827149423,-0.4798411506581135
117,0.23368167336216605,1.685820519435065,-0.0841259003607377
118,0.23577030853270164,1.6837262934243782,-0.0
119,0.23785894370323724,1.6816320644710807,-0.0
120,0.23836621693665855,1.6811234322606798,-0.0
121,0.23864868666758637,1.6808402057309961,-0.0
122,0.2389311563985142,1.6805569791536756,-0.0
123,0.2392180026888866,1.6802693642417796,-0.0
124,0.24034735934146056,1.6791369807251637,-0.23632861910352465
125,0.24298529298173419,1.6764919540862881,-0.8246510753814057
126,0.24576393399982474,1.6737057706272844,-1.0714316988031396
127,0.24846486389306013,1.670997417989651,-1.1695661105347857
128,0.24988975668330715,1.6695685699229097,-1.2053541837327872
129,0.2513146494735542,1.6681396935805228,-1.2381500892053843
130,0.25320887008797394,1.6662401357185586,-0.7831228119982325
131,0.2551030907023937,1.6643405459811251,-0.43709714574685865
132,0.2585528206109135,1.6608809941158433,-0.07265532668155868
133,0.26200255051943333,1.657421424008874,-0.0
134,0.2637944114009422,1.6556244497024424,-0.0
135,0.2653389077083713,1.654075544685306,-0.13103347905378473
136,0.26688340401580046,1.6525266349067171,-0.5407183639084765
137,0.26965176444174116,1.6497503209930977,-0.9507998653339097
138,0.27242012486768186,1.6469739246140378,-1.100804844651426
139,0.2754539099873789,1.6439312220167248,-1.185054902398164
140,0.27610010001063534,1.643283116717466,-1.200645670017006
141,0.2767462900338918,1.642635005694749,-1.1116526985061783
142,0.27735704791300364,1.6420224272538948,-0.9332542520372934
143,0.279115287207657,1.640258926680143,-0.5436574431541963
144,0.28269730074464,1.6366661417143216,-0.09488502663648993
145,0.28806610371774105,1.631281159729823,-0.0
146,0.2886122367433922,1.6307333803748172,-0.0
147,0.2888829595231303,1.630461841459572,-0.0
148,0.2891536823028684,1.6301903025205677,-0.0
149,0.2894296773749694,1.6299134753702553,-0.0
150,0.29050459349996993,1.6288353183359057,-0.06521940124782516
151,0.2921588271538807,1.6271760929688008,-0.5080920933412896
152,0.2949910665087968,1.624335265164288,-0.9287020812772747
153,0.2978233058637129,1.6214943541694855,-1.0822518471709024
154,0.30084053992087917,1.6184677738219682,-1.1684452147853432
155,0.3013412348790769,1.6179655164390296,-1.1810593897790178
156,0.3018419298372746,1.6174632557073232,-1.111623651547889
157,0.3023348929232014,1.6169687479439565,-0.9627372041373484
158,0.3038736586568865,1.6154251449959607,-0.5966930659537452
159,0.3070851518655394,1.6122035110061956,-0.14103203227440095
160,0.31288187994997085,1.606388440620995,-0.0
161,0.3135081566106534,1.6057601818559868,-0.0
162,0.31413443327133594,1.6051319230164414,-0.0
163,0.3158778763975252,1.6033829614745987,-0.033111892325835786
164,0.31744938836807934,1.6018064722938208,-0.45801290286409213
165,0.3203860890483561,1.5988604302753522,-0.908273836190709
166,0.3233227897286328,1.595914302134262,-1.0718698575245251
167,0.32630057846810984,1.5929268484159453,-1.1613222798631884
168,0.32812423656201284,1.591097217897709,-0.7155479122214571
169,0.32994789465591584,1.5892675616428449,-0.37172274785010057
170,0.33362904896981144,1.5855742649879052,-0.0
171,0.33806337935332975,1.5811252992076823,-0.0
172,0.33926528150679275,1.5799194299960797,-0.0
173,0.34046718366025575,1.5787135607128322,-0.0
174,0.34155250682249316,1.5776246550642479,-0.15189564356181243
175,0.3434089656991503,1.5757620614354817,-0.5995880690347687
176,0.3462495877250749,1.572912005180463,-0.9499579609084491
177,0.3490902097509995,1.5700618651312517,-1.086715446793705
178,0.35053370921767474,1.5686134922864177,-1.1319617099455253
179,0.3513187897691678,1.5678257503072175,-1.1541653158192358
180,0.35210387032066087,1.5670380004550042,-1.0474908893789208
181,0.3528160638018077,1.5663233792704165,-0.8434183912312142
182,0.3547353787688051,1.5643975007881303,-0.43722188855727057
183,0.35854702936497557,1.56057277233434,-0.0
184,0.36213786141393994,1.5569696123138435,-0.0
185,0.3632145775077944,1.5558891998375908,-0.0
186,0.36429129360164886,1.5548087874552865,-0.0
187,0.3666998117686764,1.552392001394585,-0.1499280699362938
188,0.368989265041113,1.5500946793773522,-0.6758366404683013
189,0.3717872961876174,1.547286978880809,-0.9734472641097714
190,0.37454475213258454,1.5445199131153557,-1.0942992622021406
191,0.37577929750851674,1.5432810362183755,-1.13194104081858
192,0.37647145761667367,1.5425864393527144,-1.1513818549397825
193,0.3771636177248306,1.541891836445998,-1.0565043933928042
194,0.37780322184162796,1.541249970068287,-0.8691900916494121
195,0.3795958019699463,1.5394510311603278,-0.47311419899215573
196,0.38267996652271963,1.5363558925879641,-0.0708079281818086
197,0.38576413107549296,1.5332607453959328,-0.0
198,0.3882631014122194,1.5307528776988943,-0.0
199,0.3889688095697339,1.5300446571730328,-0.0
200,0.38933220827202314,1.5296799647899064,-0.0
201,0.3896956069743124,1.52931527243629,-0.0
202,0.3900421819318871,1.5289674637454267,-0.0
203,0.39127244981062037,1.5277328165962312,-0.0027137731387858826
204,0.3939888614404862,1.5250067265070646,-0.6624972743014381
205,0.39657474011528426,1.522411588590698,-0.9520905008005304
206,0.39939063337422814,1.5195855347467788,-1.0816408627994616
207,0.40069919439233675,1.5182722209507102,-1.1216460263309227
208,0.40200775541044537,1.5169588863089183,-1.15735983606704
209,0.4039484587645096,1.5150110672724328,-0.6877907509091531
210,0.4058891621185738,1.5130632220803029,-0.33054035963975364
211,0.4098333585488524,1.5091044811581733,-0.0
212,0.4142343307133279,1.504687281670277,-0.0
213,0.41648893193349723,1.5024243699196136,-0.13590435538530535
214,0.4187435331536666,1.5001614506939018,-0.6586938952149148
215,0.4215927853744606,1.497301635791573,-0.9628916487252847
216,0.42437694509834656,1.4945070752404228,-1.0786395856513977
217,0.42584125552577257,1.49303725911722,-1.1195622799937561
218,0.4266313676152396,1.492244165623049,-1.1399278692260633
219,0.4270576419801528,1.4918162795923688,-1.150677660776639
220,0.42748391634506594,1.4913883913197319,-1.090646089161785
221,0.4279113856936172,1.4909593014111941,-0.9579833614864159
222,0.42931105807211034,1.4895543109764355,-0.607730787028158
223,0.4322801377103573,1.486573915658832,-0.14767421723270277
224,0.43915755118236466,1.4796702683730363,-0.0
225,0.4395417628946424,1.4792845917633557,-0.0
226,0.4399259746069202,1.4788989152270118,-0.0
227,0.440287496146524,1.4785360154378677,-0.0
228,0.4415451395322727,1.477273577976875,-0.0073688555857454605
229,0.4439260098679666,1.4748836269418788,-0.5942536860805726
230,0.4469469066710622,1.4718511580925169,-0.9428695769322195
231,0.4497998424819739,1.4689872121718386,-1.0678985398702416
232,0.4511134031503286,1.4676685517988488,-1.1067379911141177
233,0.4518373555471759,1.4669417801531597,-1.1263946557811297
234,0.4525613079440232,1.4662150022598692,-1.0272500182058335
235,0.4532224301371131,1.4655512948046165,-0.835207293956197
236,0.45504549620224116,1.4637210823740372,-0.4376327042493229
237,0.4586613797050873,1.460090991214913,-0.0
238,0.4620012586529721,1.45673798836347,-0.0
239,0.4647322146162873,1.4539963063517878,-0.0
240,0.46712993712548095,1.451589170486896,-0.06860857982894165
241,0.4694440238280424,1.4492659942490018,-0.6100893898522548
242,0.47237141080908873,1.4463270612714074,-0.9327609347265947
243,0.47519261671253793,1.4434946510911062,-1.05669814740276
244,0.47640170156464245,1.442280738031978,-1.093356010375678
245,0.47707898914962366,1.4416007385734821,-1.1122442909811667
246,0.47775627673460486,1.4409207337807708,-1.02020415091809
247,0.47838098694585673,1.4402935129614092,-0.838255406166698
248,0.4801417417039983,1.4385256660560664,-0.4489000895773837
249,0.4832180271700256,1.4354369625759544,-0.04397804746840668
250,0.4862943126360529,1.4323482571349637,-0.0
251,0.4891848708678307,1.4294460352371878,-0.0
252,0.4897022918123266,1.4289265271234963,-0.0
253,0.48995866147894573,1.4286691233908024,-0.0
254,0.49021503114556486,1.428411719708721,-0.0
255,0.49047635188378136,1.4281493450380733,-0.0
256,0.4915051159421786,1.4271164323860708,-0.0
257,0.49385552228748364,1.4247565484916787,-0.4455703559108126
258,0.49681966708299113,1.4217804174776496,-0.8639674370202524
259,0.49987445642155504,1.4187131965092141,-1.0229628946266178
260,0.5012572111545148,1.4173247830376678,-1.067213261613154
261,0.5026399658874746,1.4159363484917482,-1.1056396135618285
262,0.5045718675728024,1.4139964781847287,-0.6458127881316306
263,0.5065037692581301,1.4120565856839837,-0.2946847708856118
264,0.5104354952598168,1.4081085778463898,-0.0
265,0.515101932085438,1.4034228303978904,-0.0
266,0.5161924686922785,1.4023277837613553,-0.0
267,0.5171915320869808,1.4013245895854254,-0.0
268,0.5195208472411673,1.3989856409040806,-0.5511907160244046
269,0.5225773353118222,1.395916467983893,-0.8945620889571394
270,0.5254555685243986,1.393026214716846,-1.0200972697975896
271,0.5266668126090528,1.39180988711157,-1.056246339959499
272,0.5273445776324802,1.3911292706910279,-1.0748248768916688
273,0.5280223426559076,1.3904486492440504,-0.9842954386604467
274,0.5286468353519741,1.3898215205769913,-0.8054306846110391
275,0.5304065748735622,1.388054338585489,-0.42221925254842774
276,0.5339176495424803,1.3845283883403585,-0.0
277,0.5374030161447542,1.3810282603796726,-0.0
278,0.5403013012748422,1.378117709797879,-0.0
279,0.5431995864049303,1.3752071679605717,-0.09407592477208324
280,0.54624792218548,1.3721459334807866,-0.6950228472772214
281,0.5490456165404951,1.3693363503543339,-0.9184440889330567
282,0.5518154571839087,1.366554669769991,-1.02430126005848
283,0.5524835369183642,1.3658837227567073,-1.0443090264362471
284,0.5531516166528196,1.3652127710709225,-0.957415836620455
285,0.5537682885320432,1.36459344444848,-0.7832847433442354
286,0.555514972078811,1.3628392278558334,-0.4070738551114467
287,0.559002079046243,1.359337058681537,-0.0
288,0.5629443103105769,1.3553778092537925,-0.0
289,0.5641514320641257,1.354165480089609,-0.0
290,0.5653585538176744,1.3529531526280922,-0.0
291,0.5664473375825134,1.351859674955664,-0.0
292,0.5674466871356427,1.350856018290838,-0.0
293,0.5697764046294214,1.3485162606714225,-0.4631328834279955
294,0.5721804724000942,1.3461018110328273,-0.7793055813508276
295,0.5752890388011931,1.3429797564269383,-0.948671149389984
296,0.5766758527749294,1.3415868968521834,-0.9941889621606482
297,0.577430560534915,1.3408288911911588,-1.0159775942410614
298,0.5778400777361699,1.3404175821059032,-1.027240113492029
299,0.5782495949374247,1.3400062713175227,-0.9735652952013614
300,0.5786618524004401,1.3395922066483001,-0.8523648421259029
301,0.5800298468295108,1.3382182064523251,-0.5253208195647141
302,0.5829417917016128,1.3352934547475794,-0.0879838843655666
303,0.5857154487564928,1.3325075987721064,-0.0
304,0.5884891058113729,1.3297217526265301,-0.0
305,0.5895234338188061,1.3286828817196579,-0.0
306,0.5905577618262393,1.3276440122072053,-0.0
307,0.591727336131207,1.3264693042479139,-0.0
308,0.5927874440127404,1.3254045447509422,-0.0
309,0.595212729383408,1.3229686188940628,-0.46408578649301874
310,0.5976328055256439,1.3205379042257053,-0.7623803594207352
311,0.600702556880862,1.317454598273191,-0.9239406574870859
312,0.6019822921531781,1.3161691882952,-0.9660800165320425
313,0.6026910620204435,1.3154572689910058,-0.9867884490868082
314,0.603399831887709,1.3147453448833801,-0.8977572989822414
315,0.6040483666029076,1.3140939201934034,-0.7216758774210635
316,0.6058521966579913,1.3122820394023016,-0.35086372052646636
317,0.609427923496854,1.308690337309955,-0.0
318,0.6134510930345453,1.3046492108788912,-0.0
319,0.6154460871379376,1.3026453209412576,-0.0
320,0.6166673585106086,1.3014186066504778,-0.0
321,0.617767211245968,1.3003138539776844,-0.0
322,0.6202253410750328,1.2978447750470792,-0.45456497837584153
323,0.6226439775014243,1.2954153459365627,-0.7382403079260457
324,0.6257265926461782,1.292318918080419,-0.8931446558516904
325,0.6270313436017979,1.291008297388645,-0.9342402778219675
326,0.6277521072843208,1.2902842847435587,-0.9544236730245037
327,0.6281475941321583,1.289887013171423,-0.9649905363243219
328,0.6285430809799957,1.289489740160428,-0.9151063826235835
329,0.6289445962950349,1.2890864100744845,-0.8010756648788135
330,0.6302943624664474,1.2877305355198592,-0.4877708725798063
331,0.6331855980283689,1.2848261972451993,-0.06303929388676653
332,0.6367617019092322,1.2812338933082377,-0.0
333,0.6403378057900955,1.2776416092224112,-0.0
334,0.6406704771723606,1.2773074336747587,-0.0
335,0.6410031485546257,1.2769732583011584,-0.0
336,0.6413272262016932,1.276647715682169,-0.0
337,0.6425003714495408,1.2754692686930569,-0.0
338,0.6450351815690589,1.2729230092395893,-0.31297999091987133
339,0.6480283072662298,1.2699163473690407,-0.6971235367046204
340,0.6510214329634008,1.2669096323805658,-0.8530733989119966
341,0.6523354802611774,1.2655895976306006,-0.8964313486397808
342,0.6529787210306077,1.2649434207441845,-0.9152052876925223
