,time,theta,torque
0,0.0,1.9198621771937625,-4.3763489352525236
1,0.00296467502821992,1.9168973216258751,-2.3052560727321363
2,0.005907756554473739,1.9139538134755298,-1.3752744916559272
3,0.009662235095555576,1.9101985776287835,-0.8053223963406632
4,0.012015487853835445,1.9078447675117518,-0.6110374726751222
5,0.012379351889173633,1.907480812780498,-0.587706391961058
6,0.01274321592451182,1.9071168569444397,-0.6339439207822665
7,0.01311203965476758,1.9067479389636006,-0.7564304336108485
8,0.01600268199063639,1.90385649778525,-1.4256755335973583
9,0.0188933243265052,1.9009649128293151,-1.6715363698012877
10,0.021662283522738954,1.8981948925442813,-1.7543043227133412
11,0.02336928141102693,1.8964871597762818,-1.7749777781416125
12,0.025076279299314906,1.8947793645027646,-1.7844572242728916
13,0.02682534864914146,1.8930294154205385,-1.3553344682979822
14,0.028574417998968017,1.891279415572866,-1.0184080044177977
15,0.03309523716247833,1.886756024352117,-0.5400524035518036
16,0.03505882186694737,1.8847912681773011,-0.427242901569986
17,0.037022406571416415,1.8828264871139127,-0.34584623903771244
18,0.037453544822630414,1.8823950832227352,-0.33113099040267463
19,0.03788468307384441,1.8819636783339522,-0.3968752499960701
20,0.038304837407518603,1.8815432630665172,-0.5453672345757368
21,0.04080073662859836,1.8790457771525721,-1.2184412322049007
22,0.04336874325834935,1.876476041300346,-1.5326324634302386
23,0.04601777813653059,1.8738250946772106,-1.6553529635664146
24,0.04930514337474145,1.870535161905278,-1.7055460327635432
25,0.049886138496162365,1.8699536900203209,-1.709144001505349
26,0.05046713361758328,1.8693722111921698,-1.6243559663255187
27,0.051049423317538055,1.8687894300620171,-1.4544535018322153
28,0.05527859531043491,1.86455653813686,-0.6984541107520593
29,0.05959485146713155,1.8602363072198438,-0.36011269150791414
30,0.06183537586474458,1.8579936748338555,-0.2613146311586254
31,0.06239258831139867,1.8574359344737152,-0.2417275026787911
32,0.06294980075805276,1.8568781927939153,-0.32614129719378476
33,0.06346548142084786,1.8563620209221134,-0.5058076969616387
34,0.06639034431595885,1.8534343228926733,-1.240172934696393
35,0.06917163918010749,1.850650214853816,-1.5111428631361077
36,0.07182600001940903,1.8479930384715741,-1.6050872898093045
37,0.075306520595719,1.8445086197995944,-1.6432339860491487
38,0.07711047219671713,1.8427025567575261,-1.197816122963421
39,0.07891442379771525,1.8408964463906914,-0.8489548158571755
40,0.08350041446863438,1.8363048265528301,-0.36225491350227484
41,0.08548114179548479,1.8343216268889377,-0.2474923886804009
42,0.0874618691223352,1.832338410766837,-0.16430885753158125
43,0.08779794083165349,1.8320019154302438,-0.1525704933035622
44,0.08813401254097178,1.8316654197417905,-0.20341108525605436
45,0.08847410976125741,1.831324893039228,-0.3248292552491045
46,0.0909797421536609,1.828816069600329,-1.0312392727602342
47,0.09363456185743992,1.8261577826298512,-1.3869688261324793
48,0.09636318034943808,1.8234254785019692,-1.5199497758513267
49,0.09954945558947924,1.820234727848916,-1.5714046443516985
50,0.10017187554939898,1.8196114114782693,-1.5756579727344402
51,0.10079429550931872,1.8189880878165254,-1.4839006339111769
52,0.10140549208479817,1.8183759971202897,-1.3043127375911276
53,0.10568233208068059,1.8140927662203368,-0.5356105897684943
54,0.11006978835654696,1.8096986095536656,-0.18854712638936977
55,0.11225568427928649,1.8075093470106203,-0.0903405674211352
56,0.11276945115818224,1.8069947870907974,-0.07171415862662783
57,0.11328321803707798,1.8064802266185997,-0.14879685026848408
58,0.11375914150317136,1.806003567331808,-0.31529048764596157
59,0.1164051534428511,1.8033534346636568,-1.0255695066569905
60,0.11898968067931721,1.8007647997867724,-1.3417548268289679
61,0.12166145898255,1.798088662833713,-1.4632092566847736
62,0.12489471652545199,1.794849963996266,-1.5120243803450673
63,0.12593084171520808,1.7938120554946495,-1.3621613249197357
64,0.1268672090546096,1.7928740613763299,-1.1065030533401348
65,0.13121772597350842,1.7885158594371702,-0.4012724870529172
66,0.13576730836024078,1.7839581209169395,-0.07559817072244537
67,0.13805683342179842,1.7816644716544348,-0.0
68,0.13872391303184875,1.780996189108835,-0.2037811357322807
69,0.13939099264189908,1.7803279053877739,-0.4224479069088327
70,0.14234722719993836,1.7773662913046662,-1.1038534774305244
71,0.14520237674364145,1.7745058391285153,-1.3484724452205255
72,0.14787051847522178,1.7718326247443243,-1.4297843687997271
73,0.1493773634582224,1.7703228619247617,-1.4498771016976322
74,0.15021373489458759,1.7694848541361712,-1.456673414126621
75,0.15105010633095278,1.7686468343000794,-1.3335044907182958
76,0.15182678624400203,1.767868613657925,-1.111594614721857
77,0.15617308576171318,1.7635135736243965,-0.3629146076799766
78,0.16068824314220953,1.7589892289609452,-0.020475963596974817
79,0.16269284164854464,1.7569805392216675,-0.0
80,0.16311917907326354,1.756553331151783,-0.0
81,0.16354551649798243,1.756126122899399,-0.0
82,0.16394763175731975,1.7557231861067333,-0.10336980213946323
83,0.1650336033555821,1.7546349934230259,-0.4526282444342252
84,0.16794769823226777,1.7517148936425664,-1.0808782391705771
85,0.17086179310895344,1.7487946869404776,-1.3083742088026187
86,0.17356568273840517,1.7460850097730682,-1.3822629818770358
87,0.17476662353377823,1.7448814604727685,-1.3973042380252856
88,0.17546296908803574,1.7441835915566066,-1.403184008098808
89,0.17615931464229326,1.743485714640058,-1.299659515434534
90,0.17682224280793885,1.742821321669921,-1.104051817032479
91,0.18117334379766847,1.7384604951582021,-0.3215655898184155
92,0.1856727818322442,1.7339509049984407,-0.0
93,0.18786609158703546,1.7317526372059042,-0.0
94,0.1882533551894844,1.731364497746341,-0.0
95,0.18864061879193336,1.7309763581564266,-0.0
96,0.1890119378613437,1.7306041990438472,-0.0
97,0.19186335832128953,1.727746310332017,-0.8036313099087856
98,0.19471477878123536,1.7248883455122703,-1.1810706810444853
99,0.19750763229561152,1.7220889738199328,-1.307950853743195
100,0.20066169098813663,1.7189274103621648,-1.355576640487787
101,0.20163620383535877,1.7179505470526213,-1.2119507516945256
102,0.20251366329302994,1.7170709595654554,-0.9647214752726213
103,0.20692156316861712,1.7126522664956965,-0.22232312648445032
104,0.21153892501929483,1.7080235237825103,-0.0
105,0.21312082568980892,1.706437719377538,-0.0
106,0.2134468886810793,1.7061108515151369,-0.0
107,0.2137729516723497,1.7057839835747652,-0.0
108,0.21409567802468563,1.705460460433868,-0.0
109,0.21673567886943332,1.7028139318312256,-0.6567563743178687
110,0.21923274947752752,1.7003106384555078,-1.0689579117103545
111,0.22228441501506793,1.6972512621652205,-1.2496265339350798
112,0.22515304781485643,1.6943752583519953,-1.3063141369566225
113,0.22582682987087263,1.6936997270153389,-1.312781538290975
114,0.22650061192688883,1.6930241887673227,-1.2120054255928319
115,0.2271406398098644,1.6923824867265527,-1.0204368334593772
116,0.2315300820556514,1.687981464488886,-0.21771847935919045
117,0.2360769869376034,1.6834224936602071,-0.0
118,0.2373933572923542,1.6821026270266408,-0.0
119,0.238709727647105,1.6807827593466975,-0.0
120,0.24039669531490843,1.6790913082429282,-0.11176172104723017
121,0.24208366298271186,1.6773998510126538,-0.5879074562356216
122,0.24529962838585606,1.6741752631812108,-1.0832660634076228
123,0.2482270096506855,1.6712399232756752,-1.2271515959159105
124,0.2512565633824081,1.66820200581141,-1.2770530084963303
125,0.253078618771119,1.6663748584586822,-0.8127941961279618
126,0.25490067415982987,1.6645476803932313,-0.44450016170975754
127,0.25967618555984884,1.6597586788046141,-0.0
128,0.2614109134552947,1.6580190448404009,-0.0
129,0.2631456413507406,1.6562794094510696,-0.0
130,0.263579341122482,1.6558444825361442,-0.0
131,0.2640130408942234,1.655409555534357,-0.0
132,0.264416548579977,1.6550049059747802,-0.0
133,0.26717035325857147,1.6522433026610208,-0.5697926937304214
134,0.27005441017106663,1.6493510253338834,-1.0315548109854935
135,0.2729384670835618,1.6464586514136073,-1.1899764108759778
136,0.27586158981811915,1.6435269839986597,-1.245582124998134
137,0.2767186696806292,1.6426673759146186,-1.118644731239833
138,0.2774966735334707,1.6418870689077267,-0.8919588103106176
139,0.2809795928219245,1.6383937791099656,-0.22762273765632463
140,0.28446251211037826,1.6349004500359974,-0.0
141,0.2864022714088085,1.6329548902956341,-0.0
142,0.2883420307072387,1.6310093292846202,-0.0
143,0.2887713661278537,1.6305787095777826,-0.0
144,0.2892007015484687,1.630148089811074,-0.0
145,0.28960006095779517,1.6297475356747675,-0.0
146,0.2920786687729995,1.6272615101682995,-0.39621545539897585
147,0.2950244758523451,1.6243068471789073,-0.9566159191300446
148,0.2979702829316907,1.6213520925087694,-1.1530784228012994
149,0.30071181001363156,1.6186021372861696,-1.2175214661825444
150,0.3012939190484651,1.6180182254999314,-1.22475390629713
151,0.3018760280832986,1.6174343090241814,-1.137358261473095
152,0.3024370221087148,1.6168715689874351,-0.9646826120119936
153,0.30582343430113523,1.6134745607118057,-0.2635215385306537
154,0.30920984649355565,1.6100775123479474,-0.0
155,0.3134960380977448,1.6057778522192012,-0.0
156,0.3139155816469964,1.6053569901412184,-0.0
157,0.314335125196248,1.604936128030171,-0.0
158,0.31472632702708747,1.604543696681827,-0.0
159,0.31755105953607815,1.6017100832222282,-0.4383008117706518
160,0.3204621826144399,1.5987897660134893,-0.9623539995675954
161,0.3233733056928017,1.595869359664202,-1.1461704941014295
162,0.32615115915406623,1.5930825470920176,-1.2086377963905008
163,0.32698886036346786,1.5922421238241122,-1.085000795404365
164,0.32774714971388436,1.59148136305794,-0.8620066451616623
165,0.33144569111143435,1.5877707075328926,-0.16044348883887033
166,0.33514423250898434,1.5840600202870212,-0.0
167,0.3378860265589154,1.581309221197273,-0.0
168,0.3386416205099084,1.58055114552314,-0.0
169,0.33902696910166463,1.5801645312549766,-0.0
170,0.33941231769342084,1.5797779169792505,-0.0
171,0.3397770507689034,1.5794119859251259,-0.0
172,0.34253892030790745,1.576641043253655,-0.3666826370951625
173,0.34546559741660854,1.573704716249219,-0.9323093630761087
174,0.3483899725677243,1.5707706131066401,-1.134617730064166
175,0.35108866467871336,1.5680628491001223,-1.2014851187287034
176,0.3515901808280247,1.5675596364796012,-1.2082980752821069
177,0.352091696977336,1.5670564204922974,-1.132584988559929
178,0.3525850362721517,1.5665614059949822,-0.9773604704314156
179,0.3559867663988888,1.5631480708354717,-0.25356032688574354
180,0.35938849652562593,1.5597346993215415,-0.0
181,0.3638820254517021,1.5552257911214553,-0.0
182,0.36425034498775166,1.5548562110668271,-0.0
183,0.3646186645238012,1.5544866310239542,-0.0
184,0.36496975911360624,1.554134334887774,-0.0
185,0.3683197461852583,1.5507728803143062,-0.4936789838588884
186,0.3712304829650481,1.547852135340655,-0.9809428807007102
187,0.37414121974483794,1.5449313016206665,-1.1487884461394298
188,0.37696175935399867,1.5421008767109132,-1.206194818252494
189,0.3787881662648317,1.5402680158589572,-0.7347457491996479
190,0.3806145731756647,1.5384351294166585,-0.3589119549905693
191,0.3854404455546867,1.5335920958502476,-0.0
192,0.3882320322818587,1.5307905812120095,-0.0
193,0.3894634544793526,1.5295547801549676,-0.0
194,0.39056555617354843,1.528448759744683,-0.0
195,0.3915739584963403,1.5274367721150939,-0.0
196,0.3948340641275581,1.5241650600700472,-0.7833506441155277
197,0.3974658836271915,1.5215238117460337,-1.064637739580523
198,0.40009770312682486,1.5188824843863675,-1.1677480748856361
199,0.4011705314736219,1.5178057554115447,-1.1885828465574202
200,0.4017191749696628,1.5172551114069404,-1.1965044604981216
201,0.4022678184657037,1.5167044634955025,-1.1138456036787594
202,0.40279703904762426,1.51617330601328,-0.9484309038691738
203,0.40626433860148914,1.5126932640538882,-0.22177813005999128
204,0.409731638155354,1.5092131914362912,-0.0
205,0.41182416463647675,1.5071129573904805,-0.0
206,0.4139166911175995,1.5050127248595686,-0.0
207,0.4143492519145751,1.5045785712846194,-0.0
208,0.41478181271155073,1.5041444177769772,-0.0
209,0.4151799140609567,1.503744850658185,-0.0
210,0.4181703681268448,1.5007433860328987,-0.3901097831292332
211,0.4211077341194817,1.4977951710685873,-0.9337464557439447
212,0.42402713805339187,1.49486490220128,-1.1239990630496572
213,0.4267340250027085,1.4921478502120398,-1.1862090827503082
214,0.42751771181481624,1.4913612032055505,-1.0697528881254939
215,0.42822898928058206,1.4906472329372429,-0.8572337139994087
216,0.4319881210595817,1.4868738147823215,-0.13324854905849665
217,0.4357472528385813,1.4831003751826268,-0.0
218,0.43746344280397625,1.481377655359876,-0.0
219,0.4391796327693712,1.4796549369669716,-0.0
220,0.43959632018222955,1.4792366646840949,-0.0
221,0.4400130075950879,1.4788183924875213,-0.0
222,0.4403989905648969,1.4784309415892865,-0.0
223,0.44345051080060216,1.4753678170304807,-0.3761001336868479
224,0.4465020310363074,1.4723046583530461,-0.9324621985268085
225,0.4494423452295946,1.4693530467711686,-1.1166214368141838
226,0.45217264839455834,1.4666121622757837,-1.176425297663524
227,0.45400244051344435,1.4647752299810313,-0.7070422403751401
228,0.45583223263233036,1.4629382744127757,-0.3324841490231218
229,0.4606559708798401,1.4580956218024537,-0.0
230,0.4637019639369075,1.4550376897669932,-0.0
231,0.4643794743673341,1.4543575245746452,-0.0
232,0.46473027588065247,1.4540053485918705,-0.0
233,0.4650810773939708,1.4536531726870525,-0.0
234,0.46541716943696243,1.4533157639555572,-0.0
235,0.4682842441439801,1.4504374591833706,-0.2905726219625659
236,0.47118832789325493,1.4475219773451873,-0.8689624297203813
237,0.4739256113010621,1.4447738843964502,-1.0779683999891883
238,0.47657554631022114,1.4421134050386482,-1.1516659763977872
239,0.4771797136018216,1.4415068219698175,-1.1606217721749739
240,0.47778388089342205,1.4409002344594528,-1.0708381502629707
241,0.47835495294896546,1.440326871000909,-0.8958899482745736
242,0.481994153379354,1.436673018351671,-0.16084232304032406
243,0.4856333538097425,1.4330191454033268,-0.0
244,0.48745547919009974,1.4311896770455803,-0.0
245,0.489277604570457,1.4293602111994903,-0.0
246,0.48977404175582584,1.428861774547417,-0.0
247,0.4902176147646644,1.4284164151496739,-0.0
248,0.4906229791012026,1.4280094184336471,-0.0
249,0.49335813639304965,1.4252632495156383,-0.2656288307323082
250,0.4963095074332271,1.4222999754096988,-0.8516545911802739
251,0.4990546736156292,1.4195436735674722,-1.0606180351621266
252,0.5017193640390981,1.4168680957667947,-1.1343847460398804
253,0.5023242761475698,1.4162607006287842,-1.1432773895970103
254,0.5029291882560415,1.4156533011584551,-1.0540446628025095
255,0.503500482553096,1.4150796540779438,-0.8803016651022647
256,0.5072252290783109,1.4113395183284025,-0.13827138306293205
257,0.5109499756035258,1.40759936627424,-0.0
258,0.5126462984865781,1.405896031443214,-0.0
259,0.5143426213696303,1.404192699180086,-0.0
260,0.51521891839191,1.4033127822232065,-0.0
261,0.5160952154141898,1.4024328659622354,-0.0
262,0.5169320784823819,1.4015925471764903,-0.0
263,0.5196458838681671,1.3988675373268713,-0.4747852404070295
264,0.5223596892539524,1.3961424974299181,-0.903711097823687
265,0.5253488373579818,1.3931408989336544,-1.0728086754792578
266,0.5265535802410263,1.3919311110831012,-1.1032259636750656
267,0.5277583231240708,1.390721306859331,-1.1228149308613444
268,0.5295458619772078,1.388926230247098,-0.6717289868246195
269,0.5313334008303447,1.3871311338796792,-0.30923525300109495
270,0.5361645470798939,1.3822795427433316,-0.0
271,0.5397649185355383,1.378663947822959,-0.0
272,0.5401297322734173,1.3782975922883682,-0.0
273,0.5404945460112963,1.3779312368921959,-0.0
274,0.540841384610618,1.3775829327239142,-0.0
275,0.5440302295147252,1.3743806181610305,-0.3041118156049802
276,0.5470023154024123,1.3713959573970953,-0.8406653108428392
277,0.549895883854654,1.3684900792089802,-1.0323134530376177
278,0.5526509099610295,1.3657232529188925,-1.0969614523264895
279,0.5544994897438231,1.3638667116490086,-0.6402019289912831
280,0.5563480695266168,1.362010150987359,-0.27538813842695614
281,0.5612050992590973,1.3571321389680817,-0.0
282,0.5646824486107842,1.3536397824693924,-0.0
283,0.5651578056408927,1.3531623750431092,-0.0
284,0.5656331626710012,1.3526849678820678,-0.0
285,0.5660621744747901,1.3522541060543118,-0.0
286,0.5684070134060888,1.3498991593381058,-0.06076974629106123
287,0.5705676463517587,1.347729211578575,-0.5677294922604371
288,0.5735305714916161,1.3447534721865817,-0.9236483000223656
289,0.5764391840465637,1.3418322048902922,-1.043054884101975
290,0.5773144428293046,1.3409531212809986,-1.0605369946054988
291,0.5777778376310723,1.3404876982108604,-1.0677727201218468
292,0.57824123243284,1.3400222728637736,-1.0020822312302522
293,0.5786995075950258,1.3395619875050764,-0.86439855908769
294,0.5825344908151678,1.3357101378082483,-0.10576669819592281
295,0.5863694740353099,1.3318582793583749,-0.0
296,0.5881625049789988,1.3300573649426664,-0.0
297,0.5899555359226877,1.3282564546940026,-0.0
298,0.5903744405953439,1.3278357097881397,-0.0
299,0.5907933452680002,1.327414965111783,-0.0
300,0.5911815843916283,1.3270250208855705,-0.0
301,0.5950639756279089,1.3231255869927483,-0.38102879381827914
302,0.5980153073003909,1.320161276842092,-0.8300121903507409
303,0.6009666389728728,1.317196900461431,-0.9911041609525054
304,0.6021283654208358,1.3160300168625017,-1.020392874641913
305,0.6027875675849841,1.3153678824038542,-1.0323259540860825
306,0.6034467697491324,1.3147057435700094,-0.942168656263705
307,0.6040603355420294,1.3140894408543293,-0.7678247837660922
308,0.6085649370907413,1.3095646998183017,-0.0
309,0.6138532820941925,1.304252726800258,-0.0
310,0.6148140802286203,1.3032876401522102,-0.0
311,0.6153494615728147,1.3027498697135556,-0.0
312,0.6156138117665453,1.3024843400313446,-0.0
313,0.6158781619602759,1.3022188104498467,-0.0
314,0.6161472587255068,1.3019485132237527,-0.0
315,0.6180112439884657,1.3000762154589474,-0.0
316,0.6205331341817859,1.297543084877369,-0.4142095928389785
317,0.6230550243751061,1.2950099358679885,-0.7825130293848095
318,0.6261064773968431,1.2919447989597965,-0.9547294635385132
319,0.6272699545305861,1.2907760827382675,-0.9847628344250235
320,0.6279307168159605,1.29011233940692,-0.997047020652531
321,0.6285914791013348,1.2894485919084202,-0.9088471449861956
322,0.6292068401482355,1.2888304473835956,-0.7376195473880216
323,0.6337319598247481,1.2842848178433652,-0.0
324,0.6384575575893303,1.2795378195016316,-0.0
325,0.6404479564124257,1.2775384172615054,-0.0
326,0.6407616464177854,1.2772233088702316,-0.0
327,0.6410753364231452,1.2769082006337578,-0.0
328,0.6413846434485544,1.276597495344954,-0.0
329,0.6438382655107517,1.2741327867151184,-0.0
330,0.6465622169479343,1.271396532194727,-0.5155590679671815
331,0.6491038555591713,1.2688433889991142,-0.8047873262655455
332,0.652104214517229,1.265829388652641,-0.9356651200093568
333,0.6528628254518725,1.2650673165169324,-0.9522163187219692
334,0.6536214363865159,1.2643052392527094,-0.8552804936766156
335,0.6543126015440892,1.263610911987374,-0.671306873153407
336,0.6588855442929045,1.2590170130062661,-0.0
337,0.6630375107516014,1.2548460389328935,-0.0
338,0.665640673564171,1.2522309737243675,-0.0
339,0.6661311230021695,1.2517382831018975,-0.0
340,0.6665746929356158,1.2512926865603438,-0.0
341,0.6690990319046671,1.2487568206545303,-0.0
342,0.6718634058883027,1.2459798295041478,-0.5082585265519337
343,0.674528202104452,1.243302844812488,-0.7832089268736284
344,0.6775168467391062,1.2403004724284044,-0.9008928320665892
345,0.6781215033422816,1.239693029777562,-0.9132707115935642
346,0.678726159945457,1.2390855840718082,-0.8374761186866014
347,0.679299422032184,1.2385096751504512,-0.6845900131615446
348,0.683883068052114,1.23390483310946,-0.0
349,0.6880146162265917,1.2297542008975415,-0.0
350,0.6908773971294956,1.2268782147034218,-0.0
351,0.6913381336856241,1.2264153542852423,-0.0
