,time,theta,torque
0,0.0,1.9198621771937625,-4.3763489352525236
1,0.00296467502821992,1.9168973216258751,-2.3052560727321363
2,0.005907756554473739,1.9139538134755298,-1.3752744916559272
3,0.009662235095555576,1.9101985776287835,-0.8053223963406632
4,0.014152148924481116,1.9057075586469838,-0.4929288211937339
5,0.019524356563599667,1.900333835823665,-0.3268022784111226
6,0.025936517272861517,1.8939196626601487,-0.23825940663117745
7,0.03365675137918321,1.8861967673729814,-0.18414177165052112
8,0.04308490648631681,1.8767650623989576,-0.13990413221191317
9,0.054663422779406334,1.8651818023988056,-0.09324527025309626
10,0.06825701712500855,1.8515821971602082,-0.0410241742372973
11,0.08269350744721304,1.8371389290675513,-0.0
12,0.10131825453112192,1.818504989666162,-0.0
13,0.11987094168147386,1.7999426860526317,-0.0
14,0.12479167655102574,1.7950193279004627,-0.0
15,0.1256541708575695,1.7941563707588286,-0.0
16,0.12651666516411325,1.7932934127213962,-0.0
17,0.12736735730127569,1.7924422623247531,-0.0
18,0.1301205482690834,1.7896875727752453,-0.7674081581086363
19,0.1327818659139586,1.787024740062163,-1.2281891280554906
20,0.13579821440875595,1.784006548884708,-1.4119470042284967
21,0.1387168217419101,1.7810860137077749,-1.470663402832466
22,0.1425422194755901,1.7772578638786132,-1.4897929372069711
23,0.14720563204756998,1.7725907469236604,-1.487727932202087
24,0.15323556411528114,1.7665554573882782,-1.4764816364953472
25,0.16185067234126685,1.7579315947218206,-1.4587426298737978
26,0.17017649984785396,1.749596092324487,-1.4417653022441212
27,0.17850232735444108,1.741259412721146,-1.4252432587169432
28,0.18681538802047568,1.7329343579348517,-1.4092713056542463
29,0.1950517054347196,1.7246850304474939,-1.3939886675135293
30,0.203248677747627,1.716474011206858,-1.3793847987020331
31,0.21141653655041573,1.7082910786246785,-1.3654384905230827
32,0.21963315802994962,1.7000582223179237,-1.3520734124061673
33,0.2278952907002813,1.6917786948365274,-1.339320210643803
34,0.23615100253548008,1.6835045426328223,-1.32727587175804
35,0.2443348340704086,1.675301398399307,-1.3160130143417041
36,0.2474446527242102,1.6721839737845756,-1.3116261038307624
37,0.2505544713780118,1.669066402906292,-1.3075362961419106
38,0.2510406516843224,1.668578997457771,-1.306915676845029
39,0.25152683199063297,1.668091588456081,-1.2295059809091269
40,0.2520146142846947,1.6676025700536699,-1.0748346697621554
41,0.25637217296531656,1.6632338734523517,-0.21845879085847675
42,0.2608594416452927,1.658735067889947,-0.0
43,0.2688629967074387,1.650710908160259,-0.0
44,0.34889854732889874,1.570468242074942,-0.0
45,0.3724310989493967,1.5468746701931733,-0.0
46,0.37444181257591336,1.5448587450912463,-0.0
47,0.37645252620243,1.5428428205593399,-0.0
48,0.3768186558241269,1.5424757421518636,-0.0
49,0.37718478544582373,1.5421086637650232,-0.0
50,0.3775367821379936,1.5417557549505947,-0.0
51,0.38031027393520583,1.5389750769606658,-0.0
52,0.4080451919073284,1.5111683894093766,-0.0
53,0.4112553358333128,1.5079499524829965,-0.011513948696774714
54,0.41385633147367745,1.5053422301113235,-0.6829614583765681
55,0.4164573271140421,1.502734460952134,-1.0217246979336996
56,0.41932778341630533,1.4998564441605948,-1.1541567530903016
57,0.42232384090370956,1.4968523865899441,-1.2018782281899458
58,0.4262029722002124,1.4929627245893557,-1.219855772823893
59,0.4309856218448359,1.4881668196282434,-1.2234435377044368
60,0.43720456362790777,1.4819301922965646,-1.2219430496692953
61,0.44620436086209153,1.4729039051355337,-1.218178539852715
62,0.45480360813920756,1.4642783630081886,-1.2140286409127117
63,0.4634028554163236,1.4556518664703877,-1.2094472436561743
64,0.47201870459163947,1.4470077655393905,-1.2044865537728866
65,0.4804898940353498,1.4385078790527046,-1.1991959739981863
66,0.4889862240232695,1.4299818584893451,-1.1935887334799664
67,0.49756001930674687,1.4213771876595507,-1.1876333582239014
68,0.4998078792666071,1.4191210819042983,-1.1857550386334759
69,0.5020557392264673,1.416864913727385,-1.1839860854524293
70,0.5028703526889298,1.4160472740516215,-1.0563362011535495
71,0.5036056247844055,1.4153092642428116,-0.8363474751224691
72,0.507448634849531,1.411451893675755,-0.10092429840630057
73,0.5112916449146564,1.4075945093036957,-0.0
74,0.516564243787332,1.4023022102112657,-0.0
75,0.5692902325140882,1.3493807430323015,-0.0
76,0.5950814157220439,1.323495100799112,-0.0
77,0.6208725989299996,1.2976103437182518,-0.0
78,0.6236023591975793,1.2948707350358886,-0.0
79,0.6263321194651591,1.2921311373898698,-0.0
80,0.6277185362866107,1.2907397285265387,-0.0
81,0.6281029751742753,1.2903539059087612,-0.0
82,0.6284874140619399,1.289968083513366,-0.0
83,0.6288489417970095,1.2896052549257335,-0.0
84,0.6317552183259555,1.286688528189493,-0.0
85,0.6490059229038985,1.2693760638887,-0.0
86,0.6714583611371789,1.2468439664197237,-0.0
87,0.6771536001821493,1.2411286575625702,-0.0
88,0.6796245310700914,1.2386490330571907,-0.4350432203043191
89,0.682020885451803,1.236244231237105,-0.724134939818199
90,0.6851212416970941,1.2331328923689724,-0.8742798958890796
91,0.6882904266046602,1.229952403169763,-0.9269866737398401
92,0.6923516191455885,1.225876600220242,-0.944552569267522
93,0.6973110050553302,1.2208991792534611,-0.9436385708194069
94,0.7036304591997882,1.2145564372974846,-0.9344963253766132
95,0.7122126963134188,1.2059420322552517,-0.9196763724428354
96,0.7223319933380352,1.1957840239652366,-0.9015378650486835
97,0.7324512903626517,1.1856251940712226,-0.8828088216265098
98,0.7434025619772229,1.174630244480656,-0.8621431557068101
99,0.7537667747709658,1.164223868885659,-0.8417831764833499
100,0.7557580350645418,1.1622244215986492,-0.4223503128046373
101,0.7577492953581177,1.1602249652756382,-0.09329265838910812
102,0.7627951500828705,1.1551583672543095,-0.0
103,0.7693391876271289,1.148587510783249,-0.0
104,0.8347795630697137,1.0828844215327984,-0.0
105,0.8678236504557709,1.0497117379116847,-0.0
106,0.8717609431971068,1.0457593162510241,-0.0
107,0.8756982359384428,1.0418069368333225,-0.0
108,0.87887755439126,1.038615467087423,-0.0
109,0.8793393609894403,1.0381518977890494,-0.0
110,0.8798011675876206,1.0376883290794294,-0.0
111,0.8802316414327023,1.0372562132096204,-0.0
112,0.883305797618798,1.0341703456978182,-0.0
113,0.8976853254229908,1.019736388529235,-0.0
114,0.9427647535505578,0.9744902038243336,-0.0
115,0.955777490398447,0.9614304661697999,-0.0
116,0.9687902272463361,0.9483712553814776,-0.0
117,0.97938232525215,0.9377417243196509,-0.0
118,0.9899744232579638,0.9271125540897366,-0.0
119,0.9962877381046433,0.9207773164869697,-0.0
120,1.0,0.9170522221874136,-0.1180546864346675
