,time,theta,torque
0,0.0,1.9198621771937625,-4.3763489352525236
1,0.002031824435072766,1.9178302617021397,-3.0784681951263146
2,0.004063648870145532,1.9157982049181552,-2.346910536740475
3,0.004977528241879054,1.914884185623462,-2.1005379322549302
4,0.005888531269701788,1.9139730221456384,-1.9108699686844983
5,0.0067600898160287545,1.913101292123811,-1.7691031535287949
6,0.007243658231747146,1.912617621515559,-1.7810161609092798
7,0.007727226647465537,1.9121339458586113,-1.717654479084567
8,0.008229267526764682,1.9116317884800562,-1.5749961948556692
9,0.009023012710470745,1.9108378492857807,-1.5125146477871534
10,0.009783564269571934,1.9100771008270003,-1.4673592483212952
11,0.010203925202884186,1.909656626510069,-1.3694367058936965
12,0.010390449275507712,1.9094700511516964,-1.3288340127963232
13,0.010475135147974985,1.9093853418031776,-1.3153648936319968
14,0.01055741257379369,1.9093030414559207,-1.3305935949601666
15,0.011380186831980743,1.9084800316344672,-1.4595254794387633
16,0.01221514207689921,1.9076448251808416,-1.2990377572025542
17,0.012955533730129502,1.9069042012766082,-1.2910257149389792
18,0.01333681879820759,1.9065227931962394,-1.3601083344419902
19,0.01371810386628568,1.9061413826622051,-1.3539091930882843
20,0.014115652303267945,1.9057437008081277,-1.269605880535442
21,0.0180911366730906,1.9017667633122541,-0.7188814844296679
22,0.022679067004344397,1.8971769628859685,-0.431835257626625
23,0.028204422221074762,1.8916491724275186,-0.27817959117960117
24,0.034795103125071045,1.8850553946213569,-0.1957331808396572
25,0.03547316038483631,1.8843770085921767,-0.4388103987183755
26,0.03610834340221901,1.883741515287022,-0.656892457937614
27,0.0390023184134353,1.8808460688088864,-1.3472549987235103
28,0.04029219501637478,1.879555495936652,-1.1203776098070894
29,0.04101259720442103,1.8788346945500674,-1.1261359930821127
30,0.04166414463363143,1.8781827797681196,-1.1379990204673853
31,0.04227124212624096,1.877575334531763,-1.0279080901690087
32,0.04296332523646851,1.8768828491281695,-1.0467597032673885
33,0.04331832431684986,1.8765276412722784,-1.1281421734629455
34,0.043673323397231206,1.87617243163351,-1.136252914937286
35,0.04404128154927238,1.87580425334524,-1.0669203974034143
36,0.04472988833943927,1.875115229738193,-1.079416906905018
37,0.04535820948311666,1.8744865226378598,-1.2119021263009337
38,0.04632546147956506,1.8735186651862954,-1.0564927718760526
39,0.04701119957797255,1.8728324902291624,-1.0693674644090547
40,0.04736467174738709,1.872478790437317,-1.1474277028354356
41,0.047718143916801625,1.8721250888537508,-1.1526951087694202
42,0.048085299973531566,1.871757692598964,-1.0811602965616054
43,0.04880660171766179,1.8710359136951207,-1.0903931423872542
44,0.049458953859601536,1.870383123864523,-1.2233927010119054
45,0.05028367220335513,1.8695578431801712,-1.084379904897192
46,0.05101065920644308,1.8688303527633203,-1.092185434393322
47,0.051378662688351937,1.8684620917317167,-1.1698042102869832
48,0.051746666170260795,1.8680938287273656,-1.1718917333648917
49,0.05212687364050667,1.867713351055133,-1.0953296899193874
50,0.05592894834296545,1.8639084811188047,-0.5822490517766944
51,0.06064233201522985,1.8591914715666211,-0.28813898217657147
52,0.06625053567902298,1.8535788156743171,-0.13284415652238343
53,0.07295930382213935,1.8468645976965001,-0.049367528140006584
54,0.07362988308955984,1.8461934680079133,-0.2898042733678861
55,0.07425979715175095,1.845563035426881,-0.5076784870943997
56,0.07753650494286021,1.8422835672723203,-1.2767675689325593
57,0.07885183540547107,1.840967087005728,-1.0299615650952907
58,0.08016716586808192,1.839650584749358,-0.8008861736224178
59,0.08085331129350355,1.838963820663364,-0.834267954498244
60,0.08147174116222261,1.8383448288790905,-0.985329807775585
61,0.08249135606248625,1.8373242775536611,-0.8462927391484384
62,0.08307428214181554,1.8367408109132617,-0.9720911852813652
63,0.08365720822114484,1.8361573401576932,-0.9887366405673831
64,0.08420528120649261,1.835608751222991,-0.8891577211236213
65,0.08485509991186878,1.834958316394415,-0.9080313328175565
66,0.08544932409612281,1.8343635245483771,-1.0438353090334533
67,0.0864348182864579,1.8333770791220305,-0.8940980626413151
68,0.08717679657793845,1.8326343771559948,-1.0451912349045842
69,0.087918774869419,1.831891668130152,-1.0497690765000431
70,0.08833797325104993,1.8314720536807827,-0.9661886741899993
71,0.08875717163268086,1.8310524370939594,-0.9695242281743913
72,0.08917357328004304,1.83063561790927,-1.0593489358397432
73,0.08987928860353633,1.8299291896715824,-1.0606040132575272
74,0.09025738022015742,1.8295507133694897,-0.9835758534662765
75,0.0906354718367785,1.8291722353028534,-0.9844690741490449
76,0.0910186359223179,1.828788677780236,-1.065461710124303
77,0.09174077075171928,1.8280657961038567,-1.0645408122908402
78,0.09240110323051239,1.8274047746680875,-0.932599285134845
79,0.09714434228069406,1.822656465112322,-0.35721532126588323
80,0.10195319923233434,1.817842339223187,-0.10566632897487807
81,0.1079099072080982,1.8118790242784608,-0.0
82,0.11610814237950093,1.8036716170554687,-0.0
83,0.11730302498311787,1.8024753905268438,-0.18432426066213134
84,0.11849790758673481,1.8012791596759832,-0.5745927977797097
85,0.11998865696992857,1.7997867145047002,-0.46116471042018353
86,0.12032273066899796,1.7994522589357012,-0.42717536391478134
87,0.12065680436806735,1.7991178026976005,-0.4582929819591612
88,0.1209939961367379,1.7987802241007413,-0.560426585964031
89,0.12164401477001355,1.798129457279883,-0.6171274769361884
90,0.1222315680277723,1.7975412248053462,-0.5403916298400663
91,0.12285543243744225,1.7969166364641502,-0.5859653262301402
92,0.12342139109080381,1.7963500184772343,-0.742161333136384
93,0.12460757015731756,1.7951624481261523,-0.6485156767753086
94,0.12514339528342053,1.7946259906734008,-0.7902100565578792
95,0.1256792204095235,1.7940895303652657,-0.8138522056525698
96,0.1261845833305448,1.7935835656843797,-0.7263060860759106
97,0.13123821254075776,1.7885238196746949,-0.19012007957612145
98,0.13625327385730612,1.7835025984463166,-0.0
99,0.14229840840864383,1.777449995762249,-0.0
100,0.14361290386336076,1.7761338709493597,-0.1737213489284421
101,0.1449273993180777,1.774817741163281,-0.5870567703005789
102,0.1478458112788299,1.7718956453764285,-1.163596861896045
103,0.1507642232395821,1.7689734332628706,-1.3656387632683338
104,0.1535708862444075,1.7661629860984895,-1.4324237834904439
105,0.15727510571104045,1.7624535677575506,-1.456702227367062
106,0.15924824181040395,1.7604775697698432,-0.9655552957042108
107,0.15994858932671954,1.7597761948004842,-1.0665124446582237
108,0.16032642759875265,1.7593977996970838,-0.9878539945006476
109,0.16070426587078576,1.7590194028803545,-0.972129551380094
110,0.16108843770657585,1.7586346614030575,-1.0339720587005052
111,0.16186606792063918,1.7578558724198527,-1.0024545649820278
112,0.16229537724537021,1.7574259201595575,-0.9033380420148917
113,0.16272468657010125,1.7569959658582064,-0.8943645394387114
114,0.16314653788971206,1.7565734787973806,-0.9734619130249046
115,0.16389679074972976,1.7558220900253074,-0.9556222158390151
116,0.1643136813799091,1.7554045653283004,-0.8622228565560546
117,0.16473057201008842,1.7549870387880129,-0.8568701904771351
118,0.16514135118138346,1.7545756312367111,-0.938366417526646
119,0.16581779471287839,1.7538981486865708,-0.9284191298259954
120,0.1664366947538533,1.753278293483601,-0.7953427260872635
121,0.17131887210104388,1.7483884492718031,-0.038197853684164465
122,0.17731564659005705,1.7423821798241714,-0.0
123,0.18674182453039082,1.7329410099719154,-0.0
124,0.19466540245556418,1.7250047694436499,-0.0
125,0.1958641441183738,1.7238041074503914,-0.0
126,0.19696204409833012,1.7227044476390099,-0.0
127,0.19887899827677993,1.7207844184224,-0.1472922358727868
128,0.19973087064237183,1.719931177512839,-0.4112149985502256
129,0.20024752123245843,1.7194136951586318,-0.4546692680346891
130,0.20072796102885188,1.7189324804937158,-0.47970026674029265
131,0.2011820598357817,1.7184776479989405,-0.5984861086541886
132,0.20182637896522418,1.7178322851621617,-0.6270669641330022
133,0.202406949750682,1.7172507711776237,-0.5270227749139991
134,0.20279627766573963,1.716860809476282,-0.5415166527087089
135,0.20317888664136294,1.7164775766431963,-0.6387086963241709
136,0.20382309662278436,1.7158323135866713,-0.6618304877074667
137,0.2044051922468431,1.7152492635244438,-0.5564649884520361
138,0.20508957649321927,1.7145637539903926,-0.7100068557256158
139,0.20572696086450232,1.7139253182442178,-0.7229978739103667
140,0.20630587667315808,1.713345444408225,-0.6108536355342383
141,0.20690227829282906,1.7127480531646093,-0.6239877463236351
142,0.20744562274008177,1.7122038047492842,-0.7499492681050908
143,0.208237935681563,1.7114101690125794,-0.6229739941879653
144,0.2088471468923649,1.7107999374021132,-0.6346087763653777
145,0.2094001588952527,1.7102459966230794,-0.7609547347784035
146,0.21022660009196978,1.7094181624022349,-0.6265932244051464
147,0.21085316052872588,1.708790542321685,-0.6377618632497462
148,0.21141899818539392,1.7082237450766287,-0.7660005876844475
149,0.2122319039359964,1.7074094557755572,-0.6321796499963079
150,0.21285156514672413,1.706788736444802,-0.6420479991226897
151,0.21341229223962058,1.706227049264525,-0.7682330357205526
152,0.2141197476548096,1.7055183785374084,-0.6495418369948591
153,0.21445995208328067,1.7051775882389035,-0.5858052705856963
154,0.21480015651175174,1.7048367970800793,-0.656456251352234
155,0.21525772301005164,1.7043784399667412,-0.7588786902013226
156,0.21593084301631904,1.7037041533708137,-0.7621382314766786
157,0.21630953081229198,1.70332480740578,-0.6827366610794999
158,0.21668821860826493,1.7029454602463787,-0.6833204128689296
159,0.21706392010255812,1.7025691034070551,-0.765636562195932
160,0.21993812544002897,1.6996898342700555,-1.144068299348325
161,0.2227390946977674,1.6968838254773313,-1.2697174296268705
162,0.22588171315585315,1.6937354150497121,-1.3168434043760018
163,0.22985243976274952,1.689757154371847,-1.3306759405896742
164,0.23477062013294742,1.6848293051913052,-1.3291012469355201
165,0.23699815046392042,1.6825972731278531,-1.3266648045533491
166,0.23922568079489342,1.6803651649137652,-1.323904597942206
167,0.2403574236067252,1.6792310678002071,-1.0049782329178976
168,0.24085173385307504,1.6787357243321055,-0.9635966050751624
169,0.24133070136912085,1.6782557530265327,-1.0183387163541253
170,0.24243068772796275,1.6771534515715865,-0.7764136220138445
171,0.24308888897742326,1.6764938594462888,-0.8784975642984404
172,0.24374709022688376,1.675834262927665,-0.8546581958621896
173,0.24434851243979294,1.6752315619931752,-0.714304749296984
174,0.24482769767897117,1.674751355692002,-0.7077682760185315
175,0.24528233241532144,1.6742957504140075,-0.7988616191342515
176,0.2464431766536385,1.6731324196907125,-0.5945516814009343
177,0.2470994471150273,1.6724747390789074,-0.7266023499699186
178,0.24772649425957122,1.6718463413239537,-0.727250200741945
179,0.24829685684837302,1.6712747472745548,-0.6072853544173565
180,0.25319623247716283,1.6663647312731256,-0.0
181,0.25816620828789205,1.661383934929134,-0.0
182,0.30786596639518427,1.611575413385314,-0.0
183,0.5810586460556435,1.3377929707758098,-0.0
184,0.9358598156479456,0.9823803952971696,-0.0
185,1.0,0.9181640037835451,-0.0
