,time,theta,torque
0,0.0,1.9198621771937625,-4.3763489352525236
1,0.0009613537943707146,1.9189008016629514,-3.6353609782933507
2,0.001893253134492714,1.9179688437953488,-3.0988936396952504
3,0.0028035411675190296,1.917058468033873,-2.6892602932612695
4,0.003316342681909633,1.9165456053505756,-2.5752637005132177
5,0.003829144196300236,1.9160327346596497,-2.404519067340968
6,0.0043748165490705895,1.915486980467072,-2.1643000370824654
7,0.005392641087852698,1.9144689827791774,-2.054084692222959
8,0.006410465626634807,1.9134509600588454,-1.7345718992886263
9,0.007044600461940872,1.9128166903810346,-1.7418822041499424
10,0.007678735297246936,1.912182412218424,-1.6659349246803252
11,0.008305581822188577,1.911555415986289,-1.4976228416481252
12,0.00884870910908308,1.911012153084735,-1.4626671228394261
13,0.009391836395977585,1.9104688848446532,-1.5283977608599397
14,0.010297921598586062,1.9095625524388449,-1.3435658563889774
15,0.010978698349364813,1.9088815808424286,-1.3289459462206654
16,0.011342084809112836,1.9085180872643646,-1.3908354712448425
17,0.01170547126886086,1.9081545914108644,-1.3823897068926727
18,0.012088731696450613,1.9077712131576061,-1.2993517578623985
19,0.0128642078772465,1.9069954913839853,-1.2914327817566171
20,0.013312019557430426,1.9065475335097353,-1.3713719577502514
21,0.013759831237614352,1.9060995722268945,-1.362267461200824
22,0.014214182724875379,1.9056450654910275,-1.2658247691571265
23,0.01494223990156325,1.9049167527828852,-1.2623298096534967
24,0.015317906920757941,1.9045409506779771,-1.3331659603546226
25,0.015693573939952632,1.9041651462348115,-1.3293457820324313
26,0.016085300050696694,1.9037732743441533,-1.2478214505515308
27,0.016847659871109245,1.903010624024713,-1.2467863429836925
28,0.017288153236538737,1.902569958718102,-1.3303405577390746
29,0.01772864660196823,1.9021292902058191,-1.3250799054983002
30,0.018175171567409002,1.901682584436675,-1.2324280185594207
31,0.018926909737977456,1.9009305349880596,-1.2327226421679367
32,0.019309116246279047,1.9005481669147521,-1.3069728465398132
33,0.019691322754580638,1.9001657964667003,-1.3045897190782347
34,0.02008775069666786,1.8997691959824956,-1.2230398804172726
35,0.020848503370186566,1.8990081055319024,-1.2240860457064913
36,0.02128724618664785,1.8985691639222355,-1.308939022365448
37,0.021725989003109132,1.8981302191820646,-1.3048761929054304
38,0.022170257313060666,1.897685743225941,-1.2132636279503564
39,0.022905833027915556,1.8969498171703536,-1.214488586763206
40,0.02333464452927411,1.8965207976757898,-1.298095597780395
41,0.023763456030632662,1.8960917752147746,-1.2947717616387766
42,0.024199011406805145,1.8956560025331226,-1.2051515692676218
43,0.02493019466704405,1.8949244480888616,-1.2065896329315096
44,0.025304359878455012,1.8945500898475576,-1.2804809074447057
45,0.025678525089865973,1.8941757293758328,-1.2790815492528402
46,0.026067263465134233,1.8937867857774986,-1.1993739454097814
47,0.026756410039300554,1.8930972698587254,-1.2004315331235673
48,0.027388280427337094,1.8924650545410686,-1.3200747839868003
49,0.028365025899383712,1.8914877633576839,-1.1534872807011993
50,0.02916381164549405,1.8906885207546726,-1.29791699423464
51,0.02991311544081968,1.88993877919904,-1.2853549331076255
52,0.03029792988135609,1.8895537364046158,-1.2048263617779253
53,0.0306827443218925,1.8891686913719747,-1.2019277793148107
54,0.03107727800439783,1.8887739189535127,-1.2781647543051948
55,0.03194581987423069,1.8879048426728864,-1.2656137041686004
56,0.03233401099715251,1.887516408782183,-1.185452686244218
57,0.03272220212007433,1.8871279726478047,-1.1837565941798032
58,0.03311898956581708,1.8867309324481654,-1.2619522101992489
59,0.03397063773386323,1.8858787333077058,-1.2521603903208174
60,0.03466285167104799,1.8851860631606534,-1.240870259653413
61,0.035298102793516584,1.8845503868503566,-1.3485044608634673
62,0.03591051506664778,1.883937558333439,-1.327457584012783
63,0.036267066689990524,1.8835807615042057,-1.2478619578415608
64,0.036623618313333266,1.88322396269683,-1.2395348142910523
65,0.0369961296149347,1.8828511910451518,-1.3052403296266246
66,0.037855052970592114,1.8819916587188907,-1.282514448917708
67,0.03827758731334665,1.8815688204184133,-1.192245423906933
68,0.038700121656101184,1.8811459794511876,-1.1880965834570998
69,0.03912533430801503,1.8807204555473964,-1.2687353713654022
70,0.03978745092723538,1.8800578485580293,-1.2582626907782823
71,0.04041141562363332,1.8794334154801087,-1.13002357229626
72,0.04105706001874673,1.8787872804665597,-1.2447161453827835
73,0.04170270441386015,1.878141139063059,-1.2378505735936924
74,0.04231228194099538,1.8775310864069996,-1.1141492339064762
75,0.04288282625279525,1.8769600926475813,-1.118411618233814
76,0.043422822235179584,1.8764196670617779,-1.2284217298499218
77,0.044396688859778134,1.8754450147027102,-1.070202105733228
78,0.04515049111581047,1.8746905952234794,-1.2132567164880508
79,0.04590429337184281,1.87393616727528,-1.2082201484805293
80,0.04628649936217457,1.8735536407222477,-1.1300712989718955
81,0.04666870535250633,1.873171112094706,-1.1295364048747683
82,0.04705900204586044,1.872780483793491,-1.2084568788480097
83,0.047905953680240095,1.871932804557792,-1.2015452343006445
84,0.04831938961067841,1.871519009486981,-1.1172819073690794
85,0.04873282554111672,1.8711052120144795,-1.1174978807252771
86,0.04914845656370203,1.8706892151088204,-1.2019869959785106
87,0.04986476005805899,1.869972274922307,-1.1974835993828274
88,0.050281667070634146,1.8695549937779146,-1.1122836707060122
89,0.050698574083209304,1.8691377102026994,-1.112451399217878
90,0.05111687583443655,1.8687190281856647,-1.1974160941659173
91,0.051959164311408186,1.8678759659846274,-1.1904730773543657
92,0.052335961699696995,1.867498819003917,-1.1131848589049436
93,0.052712759087985804,1.8671216700381528,-1.1124713170537712
94,0.053098123705423196,1.8667359437962825,-1.1905327066933253
95,0.05393047242804265,1.8659028063767242,-1.1840177156696792
96,0.05430442519794288,1.86552849588021,-1.1072918563629757
97,0.05467837796784311,1.8651541834391183,-1.1065823969159472
98,0.055061209546138246,1.8647709816355886,-1.184236656774538
99,0.05590039476282834,1.8639309771910662,-1.1777118593000429
100,0.05630995810923752,1.8635210102089577,-1.0939752547818395
101,0.0567195214556467,1.863111040920395,-1.094088727397269
102,0.05713133397953196,1.862698817899134,-1.1780825434543925
103,0.05796192713281742,1.8618673891336535,-1.1718107966113132
104,0.05833464697900062,1.8614942909846062,-1.0952365726661106
105,0.05870736682518382,1.8611211909253182,-1.0945030417933166
106,0.059088856163329574,1.860739310450173,-1.1720434499803045
107,0.059789296182909686,1.8600381466921456,-1.1679932568398586
108,0.06043822543893109,1.8593885405658013,-1.0380837799536218
109,0.06106494153768028,1.858761165395198,-1.1550117197067271
110,0.06169165763642947,1.8581337846326884,-1.1538823637230502
111,0.062281884546394065,1.8575429266066,-1.0359843295925184
112,0.0628443235578048,1.8569798819435799,-1.042258926125901
113,0.06337570178468795,1.8564479276980366,-1.154006215880169
114,0.06434328770563527,1.8554792827970592,-0.9987263343457581
115,0.06508829710303234,1.8547334497397776,-1.142866812244689
116,0.0658333065004294,1.8539876088993885,-1.1404920535691037
117,0.06625826751561224,1.8535621700488392,-1.054122384972093
118,0.06668322853079509,1.8531367288042637,-1.055337744125708
119,0.06710646297519351,1.8527130137000798,-1.1430106372112339
120,0.0678597913027184,1.851958823458649,-1.13938918748122
121,0.06828785285020346,1.8515302685199675,-1.0519283689283596
122,0.06871591439768852,1.8511017111585593,-1.0527792911903668
123,0.06914158016303464,1.8506755499506138,-1.140575669627503
124,0.06989407666639103,1.8499221712426106,-1.1363438158465116
125,0.07027227515868398,1.8495435262952473,-1.0584373255024284
126,0.07065047365097693,1.849164879448403,-1.0578780150783764
127,0.07103551191239403,1.8487793827725831,-1.136673653518572
128,0.07183457819770778,1.8479793583609774,-1.1313250980183391
129,0.0722793869653031,1.8475340122974249,-1.0401681555147906
130,0.07272419573289843,1.8470886636475776,-1.0411518887869893
131,0.07316300346796972,1.8466493207788246,-1.1316128356812247
132,0.07385650084710171,1.8459549721023554,-1.1278476627114429
133,0.07449802578488739,1.845312653671182,-0.9986733731608838
134,0.07506379852801054,1.84474617671915,-1.1043712679219377
135,0.07539041375725146,1.8444191529948655,-1.1661021948203811
136,0.07571702898649238,1.8440921277339484,-1.162360933542418
137,0.07606207664032348,1.8437466452465394,-1.0877056199395192
138,0.07677022731603281,1.8430375971785755,-1.0827530873776279
139,0.0774106076732988,1.8423963994896153,-1.2007786091860877
140,0.07834417469102356,1.8414616303977864,-1.032721708901556
141,0.07877141399078591,1.841033837150195,-1.0325339263710864
142,0.07919581305471717,1.8406088854805756,-1.119352309504148
143,0.07990577346510841,1.839897994990545,-1.114532109964936
144,0.08031592806018216,1.839487299859326,-1.0294612168141262
145,0.08072608265525591,1.8390766025566574,-1.0289737970392654
146,0.08113653970906762,1.8386656002220745,-1.1129468779936837
147,0.08186379563953389,1.8379373723757353,-1.1080116754228935
148,0.08228033426230702,1.8375202737680094,-1.0216584945366225
149,0.08269687288508015,1.8371031729374445,-1.0214228075924527
150,0.08311230988037602,1.836687173007862,-1.1066482954926753
151,0.08386534051014137,1.8359331158776597,-1.1014442717092081
152,0.08429119571239385,1.8355066766908075,-1.0132701800231556
153,0.08471705091464633,1.8350802351992546,-1.0133236232957699
154,0.08513979785255792,1.8346569039721918,-1.1003007235338311
155,0.08588181245035907,1.8339138578528014,-1.0954546923082333
156,0.08630319655608058,1.8334918845796324,-1.0081896298043982
157,0.0867245806618021,1.8330699090618732,-1.0081441157259468
158,0.08714357578696907,1.8326503236525304,-1.0944037908408075
159,0.08787581573507605,1.8319170463336056,-1.0898037146731294
160,0.08829320402141534,1.8314990634449513,-1.003285071438663
161,0.08871059230775463,1.8310810783654434,-1.0031526756664204
162,0.08912618693289778,1.830664887335527,-1.0887516514016244
163,0.08980418618986294,1.8299859100564284,-1.0850125504293429
164,0.09043156829777253,1.8293576174395167,-0.9575122223780403
165,0.09098051687336002,1.8288078681894617,-1.059942246672832
166,0.09134337874757957,1.8284444749198157,-1.1285584588353745
167,0.09170624062179912,1.8280810798199192,-1.1236235128823275
168,0.09208133031530842,1.8277054370179477,-1.0419190230678075
169,0.0927479395578689,1.8270378403517131,-1.036857300053504
170,0.09335611451132715,1.8264287595335265,-1.1506141304826794
171,0.09435345187447353,1.8254299256961815,-0.9728567619834776
172,0.09508750725070592,1.8246947609129252,-1.1055285517856506
173,0.0958215626269383,1.8239595888813445,-1.0945782619877353
174,0.09649353495289067,1.8232865879540479,-0.954921150873195
175,0.09704755596909251,1.8227317146973567,-1.056505849405339
176,0.09736757113477708,1.8224112054646182,-1.1163022783161682
177,0.09768758630046165,1.8220906948251658,-1.1118004477172179
178,0.09802571506643802,1.8217520410199888,-1.0373733301457502
179,0.09870325941876423,1.8210734402326105,-1.0305704655693102
180,0.09931898150859401,1.820456753009753,-1.1440226325742051
181,0.10031255525569414,1.8194616109963675,-0.9645781817444248
182,0.10084655165352098,1.8189267667372697,-0.9657650134419895
183,0.10135309410781872,1.818419416828932,-1.069661367407471
184,0.10237049078313105,1.8174003884677583,-0.9007900406917019
185,0.10311001323942115,1.8166596723790325,-1.0432221828504122
186,0.10384953569571125,1.8159189493358934,-1.0401122739316229
187,0.10426722728364467,1.8155005764856864,-0.9535640314221513
188,0.10468491887157809,1.815082201552495,-0.9538929864942317
189,0.10509943909235815,1.8146670011152777,-1.0403605212499154
190,0.10582954513116387,1.8139356915460547,-1.0369336232932866
191,0.1064947333775679,1.813269400829311,-0.9022395734746474
192,0.10704661449783427,1.8127166011046683,-1.0069438729057272
193,0.10736439856714836,1.8123982863967856,-1.0688303771938414
194,0.10768218263646244,1.8120799703603305,-1.0662628627315083
195,0.10801705761281995,1.8117445333745277,-0.9936265579091624
196,0.10868948805442431,1.81107097030643,-0.9892596228382904
197,0.10930017326200127,1.8104592516645588,-1.1050334437106923
198,0.10991411734810304,1.8098442635462524,-1.0907739565149612
199,0.11049280464548564,1.8092645875506392,-0.964804819016366
200,0.11111466625017397,1.8086416588819454,-1.0719626799492656
201,0.1117365278548623,1.8080187251670103,-1.0621866310936197
202,0.1123196248785628,1.8074346182746166,-0.9380487648458892
203,0.11285346132902067,1.8068998537608933,-0.938465100586468
204,0.11335890540172586,1.8063935279084384,-1.0418713606187102
205,0.11434059975153933,1.8054101118673036,-0.8768521592965555
206,0.11486812087420849,1.8048816611346907,-0.8834420654508265
207,0.11536758322061225,1.8043813157801796,-0.9923820860044962
208,0.11640048048955291,1.803346583055349,-0.8288858240795165
209,0.1171414111446693,1.802604328670566,-0.9781080535274802
210,0.1178823417997857,1.801862067770072,-0.9803295627719177
211,0.11829750567727078,1.801446155563989,-0.8958919564537806
212,0.11871266955475586,1.8010302414233614,-0.8979386165902407
213,0.11912374244440788,1.8006184237540945,-0.986138406719125
214,0.11978268369101709,1.7999582842968436,-0.9866981766730788
215,0.12039028675903483,1.7993495716816998,-0.8640078299209685
216,0.12111872079269288,1.7986198020087723,-1.0028539267919367
217,0.12184715482635093,1.7978900258744717,-0.9987990588050616
218,0.1222585173886123,1.7974779024676695,-0.9125354803214113
219,0.12266987995087368,1.7970657771338538,-0.9121262339304768
220,0.1230780878367415,1.7966568104221872,-0.9971710979494012
221,0.12382057982459448,1.7959129328738106,-0.993020583797984
222,0.12449298721901492,1.7952392648775866,-0.8557966560281782
223,0.1250580435914019,1.7946731452841544,-0.9631624287418806
224,0.12538092602052336,1.7943496536472885,-1.0261101761360834
225,0.12570380844964482,1.7940261606983627,-1.0232336436691534
226,0.12604197555818145,1.7936873527681454,-0.9492362508943322
227,0.12673096624147773,1.7929970523764416,-0.9443600476979138
228,0.12735197469490678,1.7923748586920323,-1.062379271057191
229,0.12834907169821452,1.791375848571137,-0.8829055906482447
230,0.1287653024806095,1.7909588158630885,-0.8836938113644337
231,0.1291767624111855,1.7905465613199907,-0.9709257821282017
232,0.12987602275788657,1.7898459458519511,-0.9694296078590593
233,0.13027484375733148,1.7894463493091248,-0.886222587088882
234,0.1306736647567764,1.789046751008432,-0.8862098418193151
235,0.13107106544187178,1.7886485740418006,-0.9699012873668627
236,0.13179541744594717,1.787922802164162,-0.9673807460480638
237,0.13245250613462012,1.7872644200424275,-0.8334059092925212
238,0.1331873952982372,1.7865280787787698,-0.9742329679623677
239,0.13392228446185428,1.7857917311698293,-0.9698964574386117
240,0.13428642781425265,1.7854268627136376,-0.8928137113905382
241,0.13465057116665102,1.785061992785452,-0.8912709070427952
242,0.13501969013064105,1.7846921358170484,-0.9679122145077284
243,0.13575503519906965,1.783955315607953,-0.9638021254012238
244,0.13642043539716756,1.7832885750557197,-0.8272766051138976
245,0.1370668132720375,1.7826408906041746,-0.9500744126960561
246,0.13771319114690747,1.7819932013281958,-0.9493284587149446
247,0.1383093961518645,1.7813957823899698,-0.8272397995614382
248,0.13883589472790414,1.780868208732199,-0.8322684687242782
249,0.13933275734214576,1.7803703289091517,-0.9399710634374282
250,0.14033185006042215,1.7793691824537488,-0.7784213798018403
251,0.14085419476785724,1.778845760071858,-0.7880110735391236
252,0.1413469920621659,1.7783519435901889,-0.899677104993625
253,0.14238547151250092,1.777311307891869,-0.7396759218515764
254,0.14312185159718188,1.7765733925295086,-0.8945869590553737
255,0.14380316702266815,1.7758906515308577,-0.9002892216078222
256,0.144423670569131,1.7752688451690637,-0.7774879411036905
257,0.14515110247706411,1.774539880995986,-0.9229084573652335
258,0.14583309189282315,1.7738564497690883,-0.923175504435014
259,0.14645538265741576,1.7732328387988905,-0.7966196786904132
260,0.14718238003734938,1.772504294030242,-0.9377583634450413
261,0.1478663180001857,1.771818894951033,-0.9347013597064171
262,0.14849083022087922,1.7711930438824104,-0.8056084470208852
263,0.14903565060018747,1.7706470521945805,-0.9083083706695572
264,0.1493478199762065,1.7703342102282784,-0.9693751100452792
265,0.14965998935222552,1.7700213671093257,-0.9665804766909435
266,0.14998751417715836,1.7696931341666322,-0.894247219105219
267,0.1525704857672936,1.7671045509559227,-1.3881793421491742
268,0.15508119519760732,1.764588353013435,-1.4350904385512018
269,0.1559458607432994,1.7637217726310261,-1.310274458211521
270,0.15674319981243717,1.7629226574320693,-1.2190848578906759
271,0.1571872900308564,1.762477573963019,-1.2543787474574557
272,0.15763138024927564,1.762032487545709,-1.2109179478186574
273,0.1580817059571933,1.7615811487402846,-1.0877042639864394
274,0.1587716084203132,1.7608896891125363,-1.047828863021448
275,0.15939697203486183,1.7602629087917225,-1.1317374259402497
276,0.1603258422777361,1.7593319248029367,-0.933267469910722
277,0.16083718801892424,1.7588194111538782,-0.9202284348316007
278,0.1613235993276436,1.7583318861555748,-1.0074077130895638
279,0.16232441157057984,1.7573287737139411,-0.8205228570432334
280,0.1628417402782433,1.7568102519572046,-0.8197079919303824
281,0.163330463940139,1.7563203987249547,-0.920721446337607
282,0.16436403676982703,1.7552844285552625,-0.7456019695697959
283,0.16509096823907368,1.7545558048461063,-0.8898364506243474
284,0.16576123074970484,1.7538839771442847,-0.8880963553378302
285,0.16637286767833404,1.7532709076723991,-0.7614879222214581
286,0.16710175344814754,1.7525403099731247,-0.902692764984266
287,0.16777126510127974,1.7518692209022966,-0.8981031496939069
288,0.16838295163476372,1.751256088899604,-0.7696602319807935
289,0.16910373485001523,1.7505335976783598,-0.9068840458498838
290,0.169772020727038,1.7498637232617207,-0.9008799925861461
291,0.1703829615006851,1.7492513259720044,-0.7716447188128673
292,0.17110254848465525,1.748530018731116,-0.9075967035408123
293,0.1717696839295452,1.7478612835026035,-0.9007673054170258
294,0.17237977819726522,1.747249721964772,-0.7711185415081632
295,0.17309881314236314,1.7465289530430061,-0.9063990177162506
296,0.17376484652747623,1.7458613086036865,-0.8990701989730705
297,0.17437403155729997,1.7452506457828445,-0.7692184545130876
298,0.17509821118399962,1.7445247046687313,-0.9053677717939261
299,0.17576329661686915,1.743857996610377,-0.8975177620902768
300,0.1763716996825574,1.7432481049844615,-0.767425855275568
301,0.17709004788038576,1.7425279945657788,-0.9019564317929677
302,0.17775391303224797,1.7418624960183484,-0.8939965575521498
303,0.17836120532148134,1.7412537053377917,-0.7639762203406862
304,0.1790850498870148,1.7405280701211223,-0.8997451707380659
305,0.1797480978726565,1.739863377072493,-0.891471039950751
306,0.18035464546966323,1.739255320429131,-0.7613339499192158
307,0.18106967035751723,1.7385385120326828,-0.8949862115679755
308,0.18173138953678059,1.7378751375573138,-0.8868425820798889
309,0.18233667153723232,1.737268337315514,-0.7569552279314259
310,0.1828573639383433,1.7367463360921995,-0.7580751199085037
311,0.1833468595393005,1.7362556077785656,-0.8618984255949873
312,0.18434352676679458,1.7352564231806307,-0.6945188168015203
313,0.18485534535421322,1.7347433084661525,-0.7015541271143552
314,0.18533695357087862,1.7342604785474542,-0.8099036890539476
315,0.1863542803263679,1.7332405639158084,-0.648888142245834
316,0.1870747657182405,1.732518240519281,-0.8013922342782064
317,0.18773062581191827,1.7318607031586621,-0.8062913485964707
318,0.18832716558978643,1.7312626341477053,-0.686004567592685
319,0.18884518558299337,1.7307432837301124,-0.6931411735094294
320,0.18933123701540913,1.7302559818848444,-0.8024924226325589
