,time,theta,torque
0,0.0,1.9198621771937625,-4.3763489352525236
1,0.0009636776583021444,1.918898477691493,-3.634872218234921
2,0.0018965616160970665,1.917965535028335,-3.0979008432081327
3,0.0028053297189841266,1.9170566792405919,-2.690545648478074
4,0.003317455873364731,1.9165444919535077,-2.5755955609213674
5,0.0038295820277453358,1.9160322966785477,-2.4052936872721378
6,0.004374269551921871,1.9154875274349041,-2.1667043851533396
7,0.005823069927590573,1.9140384730308007,-1.829627072918014
8,0.007211580718833269,1.9126496750861415,-1.6547589954133595
9,0.007819671651167643,1.912041446176249,-1.5961865698313173
10,0.008420248117150269,1.9114407263483602,-1.4447154615492677
11,0.009971616190548788,1.9098889583781802,-1.3651329539479704
12,0.0121863711725036,1.9076735695176612,-1.5285175729004576
13,0.01302989293967454,1.9068297938879948,-1.4700231802463457
14,0.0138159855447762,1.906043453104624,-1.4287999924624697
15,0.01427457774971283,1.9055847110118687,-1.3261610582239045
16,0.014733169954649461,1.9051259654385204,-1.314881599289151
17,0.01519237863817966,1.9046665997203613,-1.3901876153580675
18,0.015971148414517716,1.9038875552686947,-1.366117030166619
19,0.016693533251430945,1.9031649064324152,-1.3452235542596704
20,0.01735488596857041,1.9025033043741804,-1.4421646104608765
21,0.01828938859691335,1.901568436485651,-1.2660419539765806
22,0.01898132772633273,1.9008762179303158,-1.2590837931455658
23,0.019344407806163973,1.900512988245388,-1.3253759042774775
24,0.019707487885995217,1.9001497563900338,-1.3212935464169069
25,0.020088035208350022,1.8997690476701192,-1.2426050971944833
26,0.020796551065925636,1.899060225383758,-1.2402181057641861
27,0.021442698875729724,1.898413791327003,-1.3553189118633602
28,0.022376035421062104,1.8974800292401501,-1.1941851361878262
29,0.02315772403565166,1.896697973915414,-1.3289179120525876
30,0.02389050122931978,1.895964843935302,-1.313866156248347
31,0.024319389496091127,1.8955357450716643,-1.225346378880354
32,0.024748277762862474,1.895106643379881,-1.2219447096910734
33,0.02517910086968484,1.894675603045064,-1.3022571032669612
34,0.02586359520587727,1.8939907573508952,-1.29249325453074
35,0.02627358362683377,1.8935805548345428,-1.2085115734026501
36,0.026683572047790267,1.8931703497670749,-1.206543004142117
37,0.027098462418427255,1.8927552375660912,-1.2854648195343819
38,0.02791448137410358,1.8919387741755342,-1.2747248527340804
39,0.028321349193519474,1.891531680749773,-1.1927048360469639
40,0.02872821701293537,1.8911245848425533,-1.1913806355192484
41,0.029140124286611068,1.8907124441302487,-1.2709577719596132
42,0.029998893907814028,1.8898531790645323,-1.2615418257325361
43,0.030692305139755675,1.8891593592750455,-1.2516191062187172
44,0.03132642257299305,1.8885248616554526,-1.3565699756374892
45,0.03227594896629206,1.8875747536964778,-1.185861798432787
46,0.03296858157475866,1.8868816883482118,-1.184910267908103
47,0.03332839633983701,1.8865216460039251,-1.254702310529278
48,0.03368821110491536,1.8861616016391065,-1.253551168367511
49,0.034063772537586946,1.8857857984079,-1.176753231655502
50,0.03470093832771735,1.8851482176723728,-1.1777421444231366
51,0.03529157300267457,1.884557193002108,-1.2881260727671822
52,0.03647912488452357,1.8833688406457496,-1.0938776429143224
53,0.0370411259754665,1.8828064537609523,-1.198800516007848
54,0.03736810886905122,1.8824792442660752,-1.2601248758101733
55,0.037695091762635934,1.882152033098078,-1.2577312695972034
56,0.03804261485690148,1.8818042655615164,-1.185152712448438
57,0.038642552878502406,1.8812039013767694,-1.1832423159896106
58,0.039205006272431196,1.8806410436057248,-1.285987111100791
59,0.03990905104653898,1.8799364855331688,-1.2710798571640813
60,0.0403245377409353,1.8795206922103718,-1.1841505459581163
61,0.04074002443533162,1.8791048963268469,-1.1799574210151331
62,0.041158784210490504,1.8786858223437903,-1.2579028836984283
63,0.041839632931518676,1.8780044568706942,-1.2475373730899166
64,0.04247732663050623,1.8773662726592186,-1.1190810689139927
65,0.04379954862931696,1.8760430152229626,-1.116135779781222
66,0.044248593926919357,1.87559361305827,-1.035280459662211
67,0.04469763922452175,1.875144208239685,-1.0453605881619537
68,0.04513986775043869,1.8747016230360476,-1.1433891182728235
69,0.04585442075936911,1.8739864877227845,-1.1515201444743222
70,0.046268793656545196,1.8735717737373556,-1.0729992841169982
71,0.04668316655372128,1.8731570574222638,-1.0781276016175556
72,0.047098069655161647,1.8727418081195788,-1.1661323391612912
73,0.047869935161704825,1.8719692917936248,-1.1685549469285603
74,0.04830597275649272,1.871532882651071,-1.0844576912702955
75,0.04874201035128061,1.8710964709064761,-1.0879429872030535
76,0.04917463461722125,1.8706634728414082,-1.1775097487198403
77,0.04998054180085646,1.869856861903424,-1.1766282481277741
78,0.05034625964065925,1.8694908215044912,-1.1043203105047668
79,0.050711977480462044,1.8691247792476557,-1.1046732950023694
80,0.05108757380398417,1.8687488478085783,-1.1807065145856381
81,0.05185551129686339,1.8679802185926624,-1.1778552532095992
82,0.05229173727815663,1.8675435957758015,-1.0911597084293965
83,0.05272796325944987,1.8671069703442955,-1.092863317754224
84,0.053160792689710495,1.866673741987094,-1.1804952911495787
85,0.053985336623050106,1.8658484303697198,-1.1762152625381965
86,0.054652190324097454,1.8651809484721098,-1.1686905275931174
87,0.05526339008304172,1.864569167260316,-1.2738897471286483
88,0.05596245660838821,1.8638694284891997,-1.2528075291227163
89,0.05632845490430034,1.8635030751760624,-1.1730903387530602
90,0.05669445320021248,1.863136719903921,-1.1658685848729344
91,0.05707215398497743,1.862758648685137,-1.233185929347705
92,0.05776965358770019,1.8620604592257677,-1.2178228217437381
93,0.05841958465738798,1.8614098787415798,-1.0834096085238352
94,0.059980959730875645,1.8598469202414236,-1.0962613744110885
95,0.06068639210200794,1.8591407630960635,-1.0984798069832178
96,0.06132382619143691,1.8585026682182029,-1.2185277265274497
97,0.06249227354863578,1.8573329942486643,-1.0235097639969928
98,0.06304471232849217,1.8567799692219817,-1.1262286457840254
99,0.06336551857580805,1.8564588206054902,-1.1867543937404996
100,0.06368632482312393,1.8561376704762675,-1.184272022359508
101,0.06402664199866205,1.8557969868565627,-1.1125276654020468
102,0.0647057140432074,1.8551171788663747,-1.1100415784828859
103,0.06532417992530143,1.8544980371652269,-1.2227020865566005
104,0.0662771463624847,1.853544018410125,-1.0564168096971802
105,0.06696051347467946,1.8528598892225114,-1.0593634724509946
106,0.06731188708106756,1.852508121394593,-1.1311515981783853
107,0.06766326068745565,1.8521563518310937,-1.1324070380104894
108,0.0680281465485005,1.8517910529496961,-1.0586507979345179
109,0.06867322071038667,1.851145244343353,-1.0621201084254759
110,0.0692660121408874,1.8505517731157972,-1.1772575324823404
111,0.06996294419461975,1.8498540352797437,-1.1672753484845704
112,0.07032351143028603,1.849493048364927,-1.0917676348572525
113,0.07068407866595232,1.8491320596758478,-1.0882250049102533
114,0.0710548718175255,1.8487608312719481,-1.159271931793398
115,0.07176525795072368,1.8480496056758289,-1.1501050037292813
116,0.0724209995086867,1.8473930828406617,-1.0175401807893285
117,0.07399096634679128,1.8458212233255857,-1.0415925124129868
118,0.07468518737496878,1.8451261568384159,-1.045627893202363
119,0.0753127935157607,1.8444977809436438,-1.1670521009851584
120,0.07649480036813189,1.8433143094971574,-0.9720345517781592
121,0.07705017937765253,1.8427582362468127,-1.0770240866040757
122,0.07737119636138269,1.8424368161316187,-1.1388898065732613
123,0.07769221334511285,1.8421153945640778,-1.137205198746471
124,0.07803145629533491,1.8417757224856546,-1.065843693634537
125,0.07870734067769265,1.8410989786426117,-1.0641825558453504
126,0.07932173662757395,1.8404837961644154,-1.1779926711032476
127,0.08048723692269986,1.8393167893076505,-0.9797721500265769
128,0.08103672170552563,1.8387665882632325,-1.0812642771196108
129,0.08135513231668952,1.838447760776855,-1.1411595256390947
130,0.08167354292785341,1.8381289318611507,-1.1382707300604529
131,0.08201067248237802,1.8377913578586593,-1.066362880788478
132,0.0826841855789905,1.8371169523962514,-1.0630682537339573
133,0.08329656961342262,1.8365037517795817,-1.1748226758760223
134,0.08446236605724222,1.835336386350467,-0.9744338751764855
135,0.08511744651299719,1.834680416729223,-1.0945964652817959
136,0.08577252696875215,1.834024441346076,-1.09138748029053
137,0.08638192433550917,1.8334142062487213,-0.9694530395171004
138,0.08677531264641115,1.8330202747146787,-0.9721817008852061
139,0.08716870095731313,1.8326263412867303,-1.055697568719325
140,0.08792428351520551,1.8318697059301225,-1.0580300408955778
141,0.08829944906822297,1.8314940148002496,-0.9837209479378726
142,0.08867461462124043,1.831118321931652,-0.9850771166374247
143,0.0890549146036913,1.830737485639381,-1.0641894409156363
144,0.08979141409111417,1.8299999420029824,-1.0633040932651323
145,0.09046207255699444,1.8293283265014164,-0.9318032321462504
146,0.09182685208643894,1.8279615830412144,-0.9518198083344126
147,0.09223552702113866,1.8275523162743235,-0.8785723618789096
148,0.09264420195583838,1.8271430476424206,-0.8887353384932637
149,0.09305001849700285,1.8267366396926352,-0.982017514274718
150,0.09376780668001103,1.8260178004248215,-0.9938466330660274
151,0.09442005123066652,1.8253645952240702,-0.8732543190501538
152,0.09581564315095226,1.8239669319576552,-0.9102218969100382
153,0.09622913239920061,1.823552825418904,-0.8385739865688133
154,0.09664262164744897,1.8231387170504958,-0.8512960177899381
155,0.09705157510093423,1.82272914944535,-0.9479074748217927
156,0.09777960886817906,1.8220000173405242,-0.9637629017564127
157,0.09843816767823527,1.821340459502878,-0.844316748466943
158,0.09982611951707224,1.8199503868596698,-0.8861525557819511
159,0.10023622887594921,1.8195396474321213,-0.8160177655675369
160,0.10064633823482619,1.8191289062504747,-0.8294924602700375
161,0.10105211412541938,1.818722503462527,-0.9264543499150556
162,0.1017402075206892,1.8180333425649513,-0.9434085901755583
163,0.10236737995168582,1.8174051922767742,-0.8305007555961852
164,0.10275750047768124,1.8170144613651595,-0.840948862057108
165,0.10314744437881032,1.8166239057279445,-0.9326454129800199
166,0.1038882112082325,1.8158819718103896,-0.9490468133685651
167,0.10430200787751875,1.8154675203273178,-0.8724810527650935
168,0.10471580454680501,1.8150530669546983,-0.8799199810941918
169,0.10512534670261918,1.8146428729734156,-0.9716477668508313
170,0.10582959454317539,1.8139374994393214,-0.9800832167975614
171,0.10647089827829621,1.8132951653622402,-0.8590793558065195
172,0.10705882717730064,1.812706287828928,-0.9747612352222323
173,0.10764675607630507,1.8121174061444,-0.9809835464904488
174,0.1081983706247707,1.8115648938324362,-0.8750515662287391
175,0.10887952650959606,1.8108826247432657,-0.8871470063041086
176,0.10949413408753664,1.8102670082868138,-1.0190171365311238
177,0.11043347695847819,1.8093261145957162,-0.8686956084915248
178,0.1111553819904765,1.8086030109644067,-1.0076084351444345
179,0.11187728702247482,1.8078799009280568,-1.0071362888900277
180,0.11228618239499617,1.807470320105081,-0.924126674423035
181,0.11269507776751753,1.8070607373480547,-0.925093464207338
182,0.11310120728487612,1.8066539231798835,-1.0092189801763287
183,0.11385760074193298,1.8058962490288775,-1.006827636608573
184,0.11428035271757214,1.8054727781166564,-0.9206668008766592
185,0.11470310469321131,1.805049305145651,-0.9215582245621703
186,0.1151201324590005,1.804631564128972,-1.0076409882373827
187,0.11582357311823742,1.8039269153950166,-1.0052640934020887
188,0.11646614232956075,1.8032832372761347,-0.877057598568226
189,0.11705250448452605,1.8026958591239164,-0.9866988564444661
190,0.11763886663949134,1.8021084768154654,-0.9873459204746874
191,0.11818975884440332,1.8015566223461075,-0.8775887194861143
192,0.11886702980120704,1.8008781638184799,-0.8854881009967417
193,0.11947817490760981,1.80026594273487,-1.0130137437637132
194,0.12041305502966135,1.7993294079574256,-0.8591162710642658
195,0.12112939184276593,1.7986117967151354,-0.994575497953596
196,0.12184572865587051,1.7978941792669414,-0.9917242034084638
197,0.12249748604457386,1.797241251237393,-0.861172427452233
198,0.12307701282728291,1.7966606795735767,-0.9695140215918834
199,0.12365653960999196,1.7960801039237302,-0.9706023465564135
200,0.12420132973106432,1.7955343241349044,-0.861928458528037
201,0.12487992959485701,1.7948544870647518,-0.8696770136773665
202,0.1254915287702431,1.7942417685539864,-0.9976075427729764
203,0.12642671370711409,1.793304863489955,-0.8433834211209059
204,0.12714135912672045,1.792588897158459,-0.9786100449989033
205,0.1278560045463268,1.7918729247568077,-0.9760261223648616
206,0.128261462159654,1.791466711500993,-0.8924844382679809
207,0.1286669197729812,1.7910604964152423,-0.8926006502313445
208,0.12906927723622105,1.7906573854624115,-0.9754264984593077
209,0.12977491353538964,1.7899504229659382,-0.9721894618854511
210,0.1304175756223085,1.7893065478467929,-0.8424476737075619
211,0.13100669530787792,1.7887163122393153,-0.9529103161286793
212,0.13134045398803704,1.7883819195822397,-1.016260147024638
213,0.13167421266819615,1.788047525538884,-1.0127235901971958
214,0.13202132083235818,1.7876997551349187,-0.9371356906315014
215,0.13236263705876627,1.787357786357032,-0.8685634393124204
216,0.13270395328517437,1.787015816316503,-0.869000129453928
217,0.1330535562709647,1.7866655423320004,-0.9428083030913302
218,0.13377409841053223,1.7859436126754502,-0.9433922996474801
219,0.13442639210033971,1.7852900576795414,-0.8140787602619749
220,0.13501173324088034,1.7847035808711098,-0.9262532632971864
221,0.13534307601937096,1.7843715935358022,-0.9909158805476252
222,0.13567441879786157,1.7840396048674552,-0.9888268095210282
223,0.13601866337187726,1.7836946878468989,-0.9147576173402326
224,0.13635791662173607,1.783354770587865,-0.8473765635257262
225,0.1366971698715949,1.7830148521109666,-0.8486376158092351
226,0.13704446900854492,1.7826668707057862,-0.9230079857838335
227,0.13771999925236017,1.781990009381711,-0.9254362235710071
228,0.1383369744219812,1.7813718139584438,-0.8037820954338725
229,0.13886998289828292,1.7808377481845927,-0.8108147284149684
230,0.13937095490814458,1.780335779796931,-0.92027486978833
231,0.14033745262011815,1.7793673520633402,-0.7690382190950363
232,0.14085667547324635,1.7788470885825665,-0.7789461739191578
233,0.14134649315504075,1.778356286788316,-0.8893126695474686
234,0.1424879268017491,1.7772125500256994,-0.7198105150045352
235,0.14313569620689232,1.776563468143786,-0.8541834848463503
236,0.14378346561203553,1.77591438188677,-0.8655079137513632
237,0.14437632280693607,1.775320315531854,-0.7532778702382811
238,0.14475976487812448,1.774936089609199,-0.7605803485959787
239,0.14514187678857227,1.7745531951653208,-0.8484803275169224
240,0.14583099425332308,1.7738626624893234,-0.8603691326334566
241,0.14645502312929717,1.7732373477083083,-0.7430948307827494
242,0.14703462428551417,1.7726565488168409,-0.8593561072050124
243,0.14736172930451535,1.7723287663099077,-0.9269752195940545
244,0.14768883432351654,1.7720009825866638,-0.9280054108647927
245,0.14802783998956617,1.7716612722411618,-0.8570117076425331
246,0.14869642939530206,1.7709912895524105,-0.8582465125396582
247,0.14929828866435801,1.7703881720072574,-0.9768760693696844
248,0.1504651124489077,1.7692188970457745,-0.7794020520439408
249,0.15112342248635427,1.7685591980283377,-0.9048150752779748
250,0.15178173252380084,1.7678994942589148,-0.90533856646823
251,0.15238465032715287,1.767295295770081,-0.7840171461232701
252,0.15276305949152533,1.766916080961361,-0.7871951710076611
253,0.15314139256714687,1.7665369409957516,-0.8702056955446296
254,0.15381026233453007,1.7658666408807173,-0.875585707034484
255,0.15441964682852893,1.7652559490491735,-0.7558797667367418
256,0.15589349594344795,1.7637789237299888,-0.7933945798494163
257,0.15629467495430768,1.7633768774432619,-0.7197287022184097
258,0.15669585396516741,1.7629748296982377,-0.728116023732026
259,0.15709154255574775,1.7625782828198313,-0.8195263973102547
260,0.15778386236068498,1.7618844574163253,-0.8312321823541525
261,0.15840902155586256,1.7612579344518013,-0.7128159952202199
262,0.15900697759577437,1.760658670586845,-0.8332944640610821
263,0.15934181059898841,1.7603231036958826,-0.902372096393522
264,0.15967664360220246,1.7599875355683534,-0.903074894075053
265,0.16002153251839385,1.7596418881583267,-0.8304345291649152
266,0.1603574269911629,1.7593052537996157,-0.7650657230279717
267,0.16069332146393195,1.7589686183647038,-0.7679180947558243
268,0.16103610979074104,1.758625072753993,-0.8436980637989505
269,0.16168225062986244,1.757977501091049,-0.8496557889869573
270,0.1622730545252115,1.7573853850948558,-0.7343493390619884
271,0.16290804315743096,1.7567489826603793,-0.7447610493612026
272,0.16348360324262787,1.7561721378610706,-0.8713940050000636
273,0.16443502651061162,1.7552185834609928,-0.7197560173351768
274,0.16514355833450967,1.7545084591033269,-0.8622483203715433
275,0.16581031811720445,1.7538401960339298,-0.8645551686339061
276,0.1664176034762477,1.7532315373836433,-0.7428561473225811
277,0.16701044991875238,1.7526373468941834,-0.8562134064495619
278,0.1673434477153148,1.752303592586198,-0.9212993653906268
279,0.16767644551187724,1.7519698370365657,-0.9188614188360128
280,0.16802027290787977,1.751625225946469,-0.843897687567889
281,0.16835530747812627,1.7512894265449104,-0.7764005265752679
282,0.16869034204837277,1.7509536260633116,-0.7770980359746633
283,0.16903251734396713,1.7506106674154012,-0.8505373326923753
284,0.16973423084178652,1.7499073435696906,-0.8525316241474878
285,0.17036761639977144,1.7492725000540674,-0.7263854889450613
286,0.1710852603496023,1.7485531996609391,-0.8684026098771473
287,0.17174882487137091,1.74788809887983,-0.8672632839509499
288,0.1723538670824894,1.7472816518341738,-0.7440998689652604
289,0.17384137651125028,1.7457906745242782,-0.7753294108204163
290,0.17428682446087998,1.745344185139129,-0.6909405748921941
291,0.17473227241050968,1.7448976940379497,-0.6990969256053914
292,0.17516201637718284,1.7444669420542172,-0.7969541142166924
293,0.17582861752006454,1.743798773688441,-0.8060942445103776
294,0.17643297297213464,1.7431929935602082,-0.6896365472743408
295,0.17700803007655302,1.7426165778179683,-0.8034465645188512
296,0.17733165870755527,1.7422921831890579,-0.8696792811838561
297,0.1776552873385575,1.7419677874530084,-0.8698044141976776
298,0.17798984918844615,1.7416324314206673,-0.7983488148763295
299,0.178338126241071,1.7412833264643308,-0.729734226926328
300,0.17868640329369587,1.7409342204101805,-0.7323219886241782
301,0.17903850323501422,1.7405812812474004,-0.8098915992560359
302,0.17967548531704458,1.739942777757672,-0.8149659868125185
303,0.1802577769583481,1.7393590917984405,-0.7001085195304885
304,0.1808855656269722,1.7387297965624482,-0.7095155295049804
305,0.1814542630334529,1.7381597314077963,-0.8343573963220599
306,0.1824111329115522,1.7372005530928742,-0.6808271471078545
307,0.18311609362730755,1.736493886542665,-0.8237042582495646
308,0.1837724454542513,1.735835942246677,-0.8258500180872603
309,0.18436986942706252,1.7352370650092932,-0.7055698297739886
310,0.1858226060232299,1.7337807818081328,-0.7382998677878968
311,0.18627063461335783,1.733331656687248,-0.6541955118226789
312,0.18671866320348576,1.7328825299252266,-0.6633360699939935
313,0.18714943794220673,1.732450697741623,-0.7625206125137983
314,0.18783314735569834,1.7317653063737566,-0.7730571066797082
315,0.18844891199911992,1.7311480231393288,-0.6550313040996677
316,0.1890103283693668,1.7305852194075553,-0.7672209610797676
317,0.18932687842663215,1.7302678858347913,-0.833133805407301
318,0.1896434284838975,1.7299505512498867,-0.8341890740675294
319,0.18997107829974855,1.7296220883317237,-0.7646556315296882
320,0.19030565868990937,1.7292866766036703,-0.6990739848008032
