,time,theta,torque
0,0.0,110.0,-4.3763489352525236
1,0.0005570269247638027,109.96808427766376,-3.918246250850071
2,0.0011140538495276054,109.93616774707131,-3.5398821435620573
3,0.0017010132440299203,109.90253535031928,-3.2747040531991094
4,0.0025633606082262634,109.85312206213953,-2.866729068609562
5,0.003039379923502923,109.82584509852693,-2.6728933145868194
6,0.0035153992387795827,109.79856772523154,-2.495554751676094
7,0.004030514705761762,109.76904958954063,-2.334202529697765
8,0.004577519680055054,109.73770359843888,-2.1789829771320295
9,0.005156450351574095,109.70452762615166,-2.043944592297287
10,0.005550722286616885,109.68193336063456,-2.0104276262138967
11,0.0059449942216596744,109.65933888005053,-1.934309270457184
12,0.006151850129198716,109.6474845368205,-1.8631383358497544
13,0.006358706036737758,109.63563013832855,-1.826973426479457
14,0.006612327360881149,109.6210956558373,-1.828822586226043
15,0.008614650594003433,109.50634402781068,-1.8372327418621326
16,0.009825072176197342,109.436973253935,-1.5197147878828472
17,0.011035493758391251,109.3676009151146,-1.249158501002668
18,0.011524890099501528,109.33955197873274,-1.2481210857044622
19,0.012005890719387898,109.31198401959729,-1.255228581004822
20,0.012482345103377838,109.28467641677685,-1.2531190450383054
21,0.01295319314557726,109.25768993606259,-1.2591933820339216
22,0.013421598506593536,109.23084325794085,-1.2562579279763637
23,0.013886141027318171,109.204217783121,-1.261558294159621
24,0.01416423434626395,109.18827863865627,-1.2072949359807574
25,0.014442327665209727,109.17233942676341,-1.2079968012569204
26,0.014745512274272256,109.15496200413257,-1.2713310095636872
27,0.017384872185618166,109.00367979538885,-1.603614877788616
28,0.018718316798525973,108.92724690074003,-1.3163991137228905
29,0.02005176141143378,108.85081234899394,-1.0656143612655493
30,0.020963913691224155,108.798525924056,-1.1020151824843036
31,0.021431032598378013,108.77174948769158,-1.1134748616637455
32,0.021889499831346547,108.74546881547404,-1.1321327030967712
33,0.02216105769970374,108.72990224865283,-1.0849192369491791
34,0.022432615568060935,108.71433562345725,-1.0916546652464711
35,0.022727805444279905,108.69741426410636,-1.1611016300896047
36,0.024195278983771024,108.6132922862344,-0.9762513652046377
37,0.024591556988788243,108.59057563557144,-1.0587524859037978
38,0.02496310071467629,108.56927676999744,-1.078363414539248
39,0.025198290784651987,108.55579436609445,-1.039392397392682
40,0.025433480854627686,108.54231191973184,-1.089274677122755
41,0.025641439159605876,108.53039051838249,-1.1384460342194251
42,0.025714013815731858,108.52623010106602,-1.1549513917239504
43,0.02578059217736876,108.52241342369037,-1.1426039428943013
44,0.02614998224919155,108.50123766834014,-1.077158517822282
45,0.026519372321014343,108.48006180458782,-1.1443083186457415
46,0.02669483204020169,108.47000326317227,-1.183211872945684
47,0.02687029175938904,108.45994469570304,-1.1561852207076078
48,0.02712071087060082,108.44558889188527,-1.1103557494181433
49,0.02962490198271863,108.3020283357423,-0.7606559843018833
50,0.029887174618266173,108.28699250750428,-0.7330147014503173
51,0.030149447253813716,108.27195664043845,-0.7071373006976999
52,0.03054669682351348,108.2491825875742,-0.8162732515294576
53,0.030943946393213247,108.2264084395983,-0.8554654369467355
54,0.031185966693794746,108.21253346946763,-0.8255910674543825
55,0.031427986994376246,108.19865846280656,-0.8429770817827263
56,0.031694032667421594,108.1834060402304,-0.9190373054575309
57,0.03206589219616198,108.16208721976099,-0.8817306362457665
58,0.03243775172490237,108.14076830823161,-0.9044466926042067
59,0.03270455376594929,108.12547234336122,-0.9772904773273655
60,0.03297135580699621,108.11017632799549,-0.9473560679534857
61,0.03320897677934898,108.09655324945247,-0.9129733043177872
62,0.03344659775170176,108.08293013258671,-0.925638461193405
63,0.03370939688988726,108.06786347372493,-0.9960541468101681
64,0.0349262428975698,107.99809927105535,-0.8665139210545689
65,0.03614308890525234,107.92833412846431,-0.7223985473300439
66,0.036594047736568824,107.90247919431523,-0.843539969355613
67,0.03704500656788531,107.87662413232862,-0.8833715914265763
68,0.03748698235410102,107.85128397037016,-0.908965347334064
69,0.03768540508027761,107.83990759459809,-0.9627154505448389
70,0.0378838278064542,107.82853119121519,-0.9400910958422464
71,0.03814811029828206,107.81337873033438,-0.9014242722778214
72,0.03939236241756802,107.74203976085956,-0.7442211138300047
73,0.0398872937198459,107.71366270764813,-0.8740132578290455
74,0.04023601962665005,107.69366829629803,-0.9028680081807958
75,0.040584745533454196,107.67367380243165,-0.9829988515747813
76,0.04107213964018578,107.64572850274301,-1.0104229391538373
77,0.041544951200187426,107.6186191427867,-1.0244386102038643
78,0.04200689000787319,107.59213302722698,-1.046086653499588
79,0.0424608639163403,107.56610343601895,-1.0557939003266856
80,0.04290802939503029,107.54046406668435,-1.0733968857109484
81,0.043173260732473295,107.525256279964,-1.0264543207503045
82,0.043438492069916304,107.5100484406148,-1.0325104193132908
83,0.04372698833972246,107.49350657596757,-1.1003763430815419
84,0.044877537230730444,107.4275355030136,-0.9463798445048532
85,0.04602808612173843,107.36156352286977,-0.7854963029540534
86,0.047713261294476346,107.26493491137742,-0.6059667273503144
87,0.049398436467214264,107.1683049347026,-0.4742277152433289
88,0.05515431222531972,106.83824546960223,-0.053446364009759155
89,0.05558309960085932,106.81365717342844,-0.20944254630185768
90,0.05601188697639892,106.78906884320281,-0.28831473239144834
91,0.056429243976019165,106.76513592695635,-0.350250189247619
92,0.05667331047121128,106.75114015555401,-0.4370298662198422
93,0.0569173769664034,106.73714436271042,-0.4303419540204616
94,0.05714621689605435,106.72402170510836,-0.4159729355070735
95,0.057375056825705296,106.71089902891029,-0.44537075393084247
96,0.05762599454479725,106.69650914680106,-0.5310568821139411
97,0.059564368940567367,106.58535301896578,-1.0730869916489127
98,0.06060562589948052,106.5256410280296,-1.1022231393537343
99,0.061646882858393676,106.46592821405665,-1.1250957842075557
100,0.0630564844438068,106.38509067127332,-0.920773144419666
101,0.06356463759074171,106.35594887748431,-0.9382158845420593
102,0.0640519470183668,106.32800227259169,-0.9629020000138769
103,0.0645239782924146,106.30093169279712,-0.9745462094159596
104,0.0649834179511286,106.27458307965155,-0.9940744731708806
105,0.06543383255534983,106.24875190102702,-1.0018328745809715
106,0.06569954938346144,106.23351303096067,-1.0624580946922995
107,0.06596526621157305,106.2182741076627,-1.0218027612272695
108,0.06617364688961141,106.20632338994646,-0.9836012987593087
109,0.06638202756764978,106.19437264099903,-1.0247660493862847
110,0.06665646549828616,106.17863342251601,-1.0854482913519086
111,0.0689553831926483,106.04678626777522,-1.4174708342511197
112,0.06959276859002686,106.01023016422825,-1.271724700580522
113,0.07023015398740542,105.97367369736313,-1.1275124003888897
114,0.07057919184783602,105.95365491202051,-1.1810538792892196
115,0.07092822970826662,105.93363602496866,-1.1765273484701897
116,0.07118695014978652,105.9187971812509,-1.1204582797233875
117,0.07144567059130641,105.90395828358164,-1.1575626821595812
118,0.07172278895743307,105.88806411309402,-1.206324426556785
119,0.07325515479964384,105.80017388833274,-0.9542638234289763
120,0.07361950199026598,105.77927618177469,-1.026966597521343
121,0.07398384918088813,105.75837837756771,-1.0363422017711184
122,0.07421439266103294,105.74515508036112,-0.9922299411380139
123,0.07444493614117775,105.73193174504851,-0.994291368389887
124,0.07470165660014938,105.71720692573695,-1.051809496695873
125,0.0765304369559667,105.61231147842145,-0.815134444959277
126,0.07669041827369887,105.6031351528707,-0.8520567911082454
127,0.07685039959143103,105.5939588114355,-0.8330005107385192
128,0.07707830751380113,105.58088625229738,-0.7984071785124464
129,0.07935738673750209,105.45015913583595,-0.5249266793512971
130,0.08449054339840746,105.15571388037537,-0.0707874715638933
131,0.08957524389857507,104.86404367384864,-0.00023299051537470808
132,0.0901975134147073,104.82834869091614,-0.0
133,0.09059009559532832,104.80582914866007,-0.13165527135061117
134,0.09098267777594934,104.78330958511481,-0.20146190923385196
135,0.09136890599460669,104.76115447073792,-0.25675081670484884
136,0.09175003378505675,104.73929189527824,-0.3893566266206907
137,0.0920894394391925,104.71982258206373,-0.37575024159286485
138,0.09242884509332824,104.700353232184,-0.41497874656595196
139,0.0927726989512082,104.68062867915538,-0.5271658947935444
140,0.0956554396077414,104.51526287146277,-1.2035865433226636
141,0.098522600990929,104.35078399783178,-1.4556709018279437
142,0.09972534678332008,104.28178438968658,-1.165753527341232
143,0.1001007353310347,104.26024869397764,-1.1428387820885475
144,0.10046623528283227,104.23928018916375,-1.1265351518191744
145,0.10084535178320671,104.21753039926544,-1.1181655999767086
146,0.10123470934684457,104.19519296528445,-1.0322304319179447
147,0.10157686169614859,104.17556359996573,-1.0871321032107348
148,0.1019190140454526,104.1559341450066,-1.083938151344119
149,0.10217235868235283,104.141399575874,-1.02845793429351
150,0.10242570331925306,104.12686495977887,-1.0239510572778798
151,0.10270335501803123,104.11093577125284,-1.077996069161008
152,0.10547987200581287,103.95164032963395,-1.395430703856457
153,0.10811211690502102,103.80061534697755,-1.5040386032535358
154,0.10981480619830461,103.70291981314129,-1.5343420154932488
155,0.11011688097958468,103.68558729308361,-1.4911101637715967
156,0.11041895576086475,103.6682546797164,-1.4452989858430245
157,0.1107570191591812,103.64885698395062,-1.4579143225187372
158,0.11191271221312431,103.58254379512648,-1.169147339741989
159,0.11243329216761098,103.55267276477593,-1.140708130151046
160,0.11293817585422503,103.52370218398853,-1.1233646517830906
161,0.11343187140435189,103.49537339214697,-1.1016740061357748
162,0.11391239651665022,103.46780015327566,-1.0903142797761867
163,0.11419124431014677,103.45179937414972,-1.0269210958915944
164,0.11447009210364331,103.43579853848081,-1.0199962577220418
165,0.11477018046447131,103.41857881434738,-1.0758745509530239
166,0.1173893692866386,103.26828089629811,-1.366582904121097
167,0.11869426430485741,103.19339932187123,-1.065656332567988
168,0.11999915932307623,103.11851648418094,-0.8013664516970753
169,0.12101900788331259,103.05999063582395,-0.8415055164746386
170,0.12200945636051488,103.0031514601432,-0.8712160665540349
171,0.12300282835840617,102.94614398716017,-0.8946142022636935
172,0.12355015370245895,102.91473394677674,-0.8969414774697941
173,0.12406482621766841,102.8851976200493,-0.9081786176620058
174,0.12455636187818092,102.85698892453823,-0.9081802438800253
175,0.12502810571556922,102.82991591311732,-0.917272296841686
176,0.12548579212142374,102.8036495079217,-0.9158981167780124
177,0.12593108073567694,102.77809447497928,-0.923599151352197
178,0.12619043113872225,102.76321034181296,-0.871699266892386
179,0.12644978154176756,102.74832616618986,-0.9179262873861034
180,0.1266622859778811,102.7361304583705,-0.9627162614175336
181,0.12687479041399463,102.72393472011343,-0.9261475549030808
182,0.12715211328779386,102.70801897425076,-0.8704550724271581
183,0.1299253420257861,102.54885926401992,-0.455082100858744
184,0.13041134420434702,102.5209665444555,-0.4963020035589784
185,0.13086686102382986,102.49482336385097,-0.5407722328081743
186,0.1311603492057596,102.47797934207198,-0.5040113407621193
187,0.13145383738768937,102.46113528678065,-0.5255532795567868
188,0.13175927810927227,102.44360520699817,-0.6141196361729534
189,0.1332953767323245,102.35544368255927,-0.5283807456647082
190,0.13363918058779123,102.33571158120347,-0.6273874472448986
191,0.13398298444325796,102.31597942492765,-0.6533754985477294
192,0.13422773926106404,102.3019320190924,-0.6164690520888109
193,0.13447249407887013,102.2878845853469,-0.6769727093267588
194,0.13495438433253956,102.26022693556773,-0.7073309547862986
195,0.13513891842228126,102.24963573832426,-0.6772751574948086
196,0.1352156250746931,102.24523321186982,-0.669402971419531
197,0.13528884626071805,102.24103072868967,-0.6890019827063495
198,0.13562437363381552,102.22177331392777,-0.7750216916410841
199,0.135959901006913,102.20251583634173,-0.7900713785165847
200,0.13617258489156733,102.19030888499759,-0.751885238764702
201,0.13638526877622167,102.17810190874098,-0.7973210916776852
202,0.1367074490961123,102.15961034287822,-0.8721501786188349
203,0.13925773769537617,102.01323372833055,-1.2526694531720077
204,0.13974640921066978,101.98518529059804,-1.1352827585840428
205,0.14023508072596338,101.95713666499684,-1.015764985226704
206,0.14056922694978252,101.93795733715785,-1.0610617674371665
207,0.14090337317360166,101.91877792698295,-1.0510563196757055
208,0.14125057784156245,101.89884889839355,-0.9704875998895446
209,0.14157970610669177,101.87995735113691,-1.0202205031553073
210,0.14190883437182109,101.86106572685125,-1.0142377423875242
211,0.14225223205112988,101.84135497115534,-0.9365706094569198
212,0.1425839725551506,101.82231325295072,-0.9898360366002824
213,0.1429157130591713,101.80327145865711,-0.9863780112072759
214,0.14326050578448102,101.78348039079825,-0.9101862607149164
215,0.14670843303757813,101.58556628333238,-0.3803437834699504
216,0.1471232333795589,101.56175606208699,-0.3369585629048114
217,0.14753803372153967,101.537945791408,-0.4560661989060934
218,0.14772046755509008,101.52747375074613,-0.5104873742330888
219,0.14790290138864048,101.51700169740108,-0.4933571844389281
220,0.14815224244492942,101.50268902048808,-0.4615216643441151
221,0.1488033863327767,101.46531194718916,-0.6336073509178818
222,0.1494367485329722,101.42895540672656,-0.7936818644579424
223,0.14991549970166096,101.40147376925574,-0.8996643905516376
224,0.15039425087034972,101.3739919897997,-0.9112711578317075
225,0.1506609658197935,101.35868167399312,-0.962305570549471
226,0.15092768076923727,101.34337131030607,-0.9604375668768025
227,0.1512158097762598,101.3268316518101,-0.8971987328344547
228,0.15156578643202528,101.3067416404741,-0.9550064782742819
229,0.15191576308779076,101.28665154753382,-0.9525582410719149
230,0.1521685305098897,101.27214161156738,-0.8967139744135493
231,0.15242129793198866,101.25763163518242,-0.8924372523420592
232,0.15269574992239734,101.24187682229508,-0.9472366575265029
233,0.15410910742687817,101.16074282088614,-0.7192882315872936
234,0.15457747610107492,101.13385581465882,-0.7299431165631064
235,0.1550269130362512,101.10805548894177,-0.7490147410075899
236,0.1554620326133842,101.08307696064848,-0.7559757859352482
237,0.15563843121153537,101.07295057225768,-0.7975701509583298
238,0.15570583661014942,101.06908107404175,-0.8130004237733941
239,0.15577324200876347,101.06521157321293,-0.8022443894282459
240,0.1558853901074503,101.05877354962026,-0.7803843242323215
241,0.15700687109431874,100.99439295574437,-0.5870213139706248
242,0.1586306999731709,100.90117325942278,-0.3721058828136292
243,0.15929811840905367,100.8628582909578,-0.557321257805312
244,0.15991928072425624,100.82719863504143,-0.7208233531598929
245,0.16169923661596886,100.72501379646337,-1.064752182017274
246,0.16313263890319005,100.64272256686768,-0.7944876505919696
247,0.16354975585569306,100.61877577391624,-0.7954643553044705
248,0.1639595210299409,100.59525095290613,-0.8054164118496894
249,0.16420161666600103,100.58135207755421,-0.7576513369010809
250,0.16444371230206115,100.56745317053264,-0.7594401142607414
251,0.1647066417764834,100.55235813990181,-0.8193642558160731
252,0.1663461037961706,100.45823422986224,-0.5935296638615247
253,0.16661534175333773,100.44277677459993,-0.654502907287161
254,0.16688457971050485,100.42731928517095,-0.6693183205555451
255,0.16716970235173545,100.41094978629705,-0.6206289509562866
256,0.1700209287640414,100.24725313382977,-0.2572557133208737
257,0.1731751688832617,100.06615698577319,-0.0
258,0.1775768689366192,99.81343825414912,-0.0
259,0.17906479454275678,99.7280104201186,-0.19171920949246254
260,0.17971720000428082,99.6905531085343,-0.3972057346856655
261,0.1799302443708796,99.67832131999732,-0.3783803963623433
262,0.18014328873747837,99.66608951816669,-0.35261132605489987
263,0.1805234320693115,99.64426380729665,-0.4545066426486739
264,0.18090357540114466,99.62243804934776,-0.48620175694777734
265,0.18116005585023107,99.60771231040646,-0.4500223536620493
266,0.18141653629931748,99.59298654914694,-0.46522991732811775
267,0.18168874353104703,99.57735781336837,-0.5413344038740939
268,0.18201432894146014,99.5586643416614,-0.5113177572444625
269,0.1822001374088836,99.54799614334328,-0.48365833524065
270,0.18238594587630708,99.53732793259104,-0.4933919308863808
271,0.18259582147909031,99.52527788970215,-0.5513661604114005
272,0.1838339070330466,99.45419265599395,-0.42016308818472264
273,0.18508395003620556,99.38242041080754,-0.26969846869778186
274,0.1854496140522854,99.36142543893237,-0.3021678763680633
275,0.18566777438551962,99.34889952622763,-0.36912083453191974
276,0.18588593471875384,99.33637360075316,-0.35363770879184897
277,0.18611239165608887,99.323371304852,-0.32632054200935684
278,0.18837696102943915,99.1933477485423,-0.10616069641167053
279,0.19402910855902272,98.86881944267141,-0.0
280,0.19955709891664025,98.55141836174755,-0.0
281,0.2011190742163125,98.46173403767597,-0.0
282,0.2015956044728232,98.43437295916148,-0.0
283,0.20203327856223874,98.40924288753094,-0.0
284,0.20244243145383614,98.38575041864499,-0.0
285,0.20267104712773182,98.37262391246199,-0.0
286,0.2028996628016275,98.35949740390852,-0.0
287,0.2031428651150456,98.34553336641774,-0.0
288,0.20557488824922654,98.20589284517274,-0.0
289,0.20736380832433185,98.1031774815464,-0.0
290,0.20915272839943716,98.00046197741311,-0.0
291,0.2096571320851402,97.97150030127273,-0.0
292,0.21016153577084323,97.9425386141422,-0.0
293,0.21053598901026105,97.92103837438157,-0.0
294,0.21088842429032645,97.90080235829681,-0.0
295,0.21123303470438692,97.8810156227209,-0.0
296,0.21248470515501272,97.80914754823593,-0.0
297,0.21298023434182833,97.78069536941857,-0.0
298,0.21343138030088438,97.75479156737417,-0.0
299,0.2136741005882489,97.74085510236247,-0.0
300,0.21391682087561342,97.72691863487911,-0.0
301,0.2141715724113459,97.7122913568023,-0.0
302,0.21671908776867074,97.56601842767533,-0.0
303,0.2421942413419191,96.10327534224571,-0.0
304,0.24258073303464103,96.0810834211632,-0.0
305,0.24296722472736296,96.05889149515173,-0.0
306,0.24318663429550588,96.04629323795967,-0.0
307,0.2434060438636488,96.0336949791882,-0.0
308,0.2436407724495895,96.02021711733084,-0.0
309,0.24598805830899653,95.88543840042395,-0.0
310,0.24874803363494782,95.72696325803031,-0.0
311,0.24924874350083603,95.69821295336465,-0.0
312,0.24970708054842158,95.67189566009482,-0.0
313,0.2511890640560665,95.58680148101088,-0.0
314,0.2526710475637114,95.50170723532746,-0.06776389417257311
315,0.2542160778180301,95.41299278971232,-0.0
316,0.2545879132886477,95.3916422845095,-0.11029085233262094
317,0.25495974875926536,95.370291767749,-0.15370352980246446
318,0.25517631704672183,95.35785656925125,-0.12967053027740424
319,0.2553928853341783,95.34542136522631,-0.19162392006831205
320,0.255678694239348,95.32901040111939,-0.27758068106415734
321,0.2585367832910452,95.16489920395607,-0.9127497245447984
322,0.259709279596009,95.0975733559324,-0.6752963636422255
323,0.2599226964389526,95.08531868748916,-0.6301800919327382
324,0.26013611328189623,95.07306399951084,-0.5873475331386986
325,0.26051540980723464,95.05128422801737,-0.5894020100376433
326,0.26088828642505113,95.02987304066315,-0.600152719388947
327,0.26125791039208973,95.00864856991956,-0.5290265842422069
328,0.26157153386166837,94.99063970785865,-0.5930276789267576
329,0.261885157331247,94.97263080622913,-0.6024162318989843
330,0.2622051712428807,94.95425491090802,-0.5399297537773718
