,time,theta,torque
0,0.0,110.0,-4.3763489352525236
1,0.0005368983491769406,109.96923758949455,-3.938319316007807
2,0.0010737966983538811,109.93847442439589,-3.5726300310883508
3,0.00164067612985014,109.90599266146046,-3.233539277179371
4,0.0022352163122749723,109.87192521591166,-2.874896848064035
5,0.0026344694632286585,109.84904742553653,-2.749414270140984
6,0.0030337226141823447,109.82616933930284,-2.6008464525362722
7,0.0034775646930051574,109.80073588043554,-2.4443537089308047
8,0.003962578750454151,109.77294277166958,-2.2977936909433834
9,0.004481376273983372,109.7432133366503,-2.158646145429531
10,0.005036425922414533,109.71140605064491,-2.0314791468423135
11,0.00560665815254752,109.67872827398386,-1.9150226936323376
12,0.00619835367075743,109.64482007008601,-1.7516373673211605
13,0.0065723900131570015,109.62338500616869,-1.744504674067658
14,0.006946426355556573,109.60194977236299,-1.698608435869443
15,0.0073460584827111635,109.5790475150295,-1.6528096866456587
16,0.007660361021347423,109.56103522570528,-1.6706151301121244
17,0.007974663559983683,109.54302282190926,-1.5927009113291157
18,0.008370839920529071,109.52031814440437,-1.5610388088685148
19,0.008669053534045207,109.50322755148174,-1.5777670822639345
20,0.008967267147561343,109.48613686069835,-1.51223424344022
21,0.009351442886727263,109.46411952178106,-1.4871731588593595
22,0.00964552327958803,109.44726549578205,-1.5196801308917824
23,0.009939603672448796,109.43041137720971,-1.5023477813080177
24,0.01018213190153131,109.41651170910849,-1.4515126358002772
25,0.010424660130613824,109.40261198023174,-1.4699507138518935
26,0.010715626225081841,109.38593610969795,-1.495354093761704
27,0.011154872165226678,109.36076184601345,-1.409585888155922
28,0.011594118105371514,109.33558738749092,-1.4474428796027732
29,0.011990644041973019,109.31286116848445,-1.431289101217254
30,0.012404394494684551,109.28914758527678,-1.4122000623056863
31,0.012666224620085582,109.27414103488684,-1.4378522087505783
32,0.012928054745486613,109.25913441468298,-1.4293938006513094
33,0.013221188053909441,109.24233359109819,-1.3660860334111027
34,0.013578893607556196,109.22183171980234,-1.4099926429424372
35,0.013936599161202951,109.20132972084826,-1.3985566219096857
36,0.014176554109096675,109.18757656096358,-1.3533234152996787
37,0.0144165090569904,109.17382334558191,-1.3411928355372271
38,0.014689440740321445,109.15817997444256,-1.3742170133487484
39,0.015104311856781743,109.13440105492684,-1.3022150796106748
40,0.015545778325103144,109.10909760974266,-1.2927349166691169
41,0.015987244793424546,109.08379398417257,-1.29227585572082
42,0.016432781637892635,109.05825687330089,-1.2860801656703327
43,0.016866669478471978,109.033387280197,-1.2764895753198895
44,0.017166956448496605,109.01617532360137,-1.2213749959375069
45,0.017467243418521232,108.99896328703072,-1.2669133585492083
46,0.017697837678023385,108.98574588585377,-1.30927965993575
47,0.017928431937525538,108.97252843537267,-1.2693482113033638
48,0.018231862160147105,108.95513602130282,-1.2192103652773194
49,0.018694927602694852,108.92859326779991,-1.2834522871964436
50,0.019710415321875487,108.87038518217071,-1.2958274868141746
51,0.02008911774617824,108.8486775994814,-1.2395136967103866
52,0.020467820170480995,108.82696989041192,-1.2335703385939696
53,0.02084984704959063,108.80507149058468,-1.229512581809383
54,0.021238321886288516,108.78280335136756,-1.161004529826852
55,0.02160028819828589,108.76205461719778,-1.2256340014988283
56,0.021962254510283264,108.74130576801885,-1.2307769758317821
57,0.022338462496815505,108.7197404263836,-1.2351414217031638
58,0.022709595973768287,108.69846584768058,-1.290405050941161
59,0.023172848548499794,108.67191052655757,-1.2174584826372015
60,0.0236361011232313,108.64535501511291,-1.2927590329169527
61,0.024063614292694612,108.62084805850685,-1.2156516296202198
62,0.024491127462157924,108.59634094188982,-1.2110213535367413
63,0.024914256975578548,108.57208496091177,-1.2109461582437449
64,0.025172205312990213,108.55729794588544,-1.1656070304178479
65,0.02543015365040188,108.54251087442907,-1.2085956745094084
66,0.025714125140588708,108.52623194069024,-1.2635644502816947
67,0.02707399842886004,108.44827494387906,-1.0835283177786195
68,0.027520582866154285,108.42267343225853,-1.0936860383284548
69,0.02796257949497818,108.39733477149592,-1.1113596870883955
70,0.028402003437410617,108.37214344087778,-1.1221211094514458
71,0.02866681945179777,108.35696197224418,-1.1693029172820082
72,0.02893163546618492,108.34178044452196,-1.1771656398029737
73,0.029218126269226086,108.32535626503541,-1.1276269031108002
74,0.029742626697239385,108.29528709888623,-1.2230056239789076
75,0.030158442046332477,108.2714485899237,-1.1679108459375607
76,0.030543044306733724,108.24939938807387,-1.2173861630446918
77,0.030904396146243053,108.22868301391212,-1.216184693039866
78,0.03116847006893656,108.21354353024775,-1.1682077879065313
79,0.03143254399163007,108.19840398789499,-1.1671323274857786
80,0.03172196014076872,108.18181149053144,-1.2252740156854314
81,0.03208803155635531,108.16082417144013,-1.1732953077404644
82,0.03245410297194191,108.1398367404086,-1.169942687522355
83,0.03269009931492446,108.12630665156047,-1.20905001194372
84,0.032926095657907016,108.11277651485425,-1.1724984688443847
85,0.03323717357426001,108.09494173190454,-1.118000369268929
86,0.033590284149258055,108.07469702799415,-1.1818801403049697
87,0.0339433947242561,108.05445221853276,-1.1875142124464035
88,0.03417300950745993,108.04128770834427,-1.1511343296869185
89,0.034402624290663764,108.02812315443578,-1.1482153085710578
90,0.03465844928943723,108.01345583311841,-1.1907289115044362
91,0.035240904290505186,107.98006149183914,-1.1048015654338141
92,0.035577985655885484,107.96073522025087,-1.1665096555099217
93,0.03591506702126578,107.94140885363653,-1.1726137997455568
94,0.03617609459316935,107.92644292175018,-1.1262712777540766
95,0.03643712216507292,107.91147693402232,-1.166247630034971
96,0.036730274789780214,107.89466899203725,-1.2140174730602553
97,0.0371579705964775,107.87014686763416,-1.1493055016506195
98,0.03752926467652588,107.84885843656029,-1.2040652584702567
99,0.03787322818462974,107.82913692009741,-1.2059212607762622
100,0.038233301770474536,107.80849160593284,-1.1385526638803862
101,0.03856807318861344,107.78929692984602,-1.185946218995855
102,0.03890284460675234,107.77010215868545,-1.1865697206470147
103,0.039135683780573846,107.75675181487705,-1.1445199238639499
104,0.03936852295439535,107.74340142639082,-1.1441394723206957
105,0.03962931159216712,107.72844843570634,-1.1964319192525286
106,0.04052806836220432,107.6769154546372,-1.1989842977882987
107,0.040958189773450775,107.65225288123777,-1.1976483388543973
108,0.04138730368963817,107.62764791835127,-1.1950655338824527
109,0.0416487022093013,107.61265951187971,-1.2428855665124794
110,0.04191010072896443,107.59767104495653,-1.241491044479036
111,0.042199239232634,107.58109191031777,-1.1843019575939222
112,0.042578009404288124,107.55937320834695,-1.233672147163652
113,0.042956779575942246,107.53765438050637,-1.2301283427856902
114,0.04334784447270036,107.51523043652129,-1.2243782597578856
115,0.04374369589440196,107.4925318935453,-1.2909554637640437
116,0.04461297893064276,107.44268578198654,-1.273314303894095
117,0.04572564054996982,107.37888297585769,-1.263843989929438
118,0.046104789498164545,107.35714137919133,-1.2030296501484707
119,0.04648393844635927,107.33539966032629,-1.1909615949998966
120,0.04686788584506755,107.31338265688632,-1.184374684026502
121,0.04712259978489825,107.29877632207707,-1.1372101510523767
122,0.047377313724728955,107.2841699342521,-1.135923076650841
123,0.04765747675027529,107.26810412562705,-1.1907661582447768
124,0.04805673860123206,107.24520854040327,-1.1206536645838927
125,0.04845600045218883,107.2223128264145,-1.1186835966739985
126,0.0488594664736921,107.19917589351812,-1.118507120131703
127,0.04914524667806046,107.18278762503115,-1.0690957324902843
128,0.04943102688242882,107.1663992933957,-1.07123217637682
129,0.0497377183845247,107.14881171343694,-1.1369884212761987
130,0.05119742819137304,107.0651019419349,-0.9515718508871018
131,0.051555026005601884,107.04459459645403,-1.0264448030076962
132,0.05191262381983073,107.02408715607237,-1.0407117017288763
133,0.05217753054054313,107.00889528175571,-0.9979743994440148
134,0.05244243726125553,106.99370335598115,-1.044710739541919
135,0.05273957738783203,106.97666283930576,-1.101464273095304
136,0.05347480526268649,106.93449838569369,-1.1313080454766613
137,0.05416583543634329,106.89486822025458,-1.1497797912469974
138,0.0545500488509366,106.8728336391458,-1.193511281409246
139,0.05491077210312624,106.85214610244964,-1.1890189510668703
140,0.05517611273036244,106.83692870410569,-1.1376725536212304
141,0.05544145335759863,106.82171124791431,-1.1769176287874523
142,0.05572473801232181,106.80546462522892,-1.2272773931879217
143,0.05614801536557827,106.78118917107824,-1.1634534147132776
144,0.0565384222707559,106.75879874818534,-1.207079268307454
145,0.05690308862817814,106.73788446773645,-1.1990587642301873
146,0.05716879833866765,106.7226454597272,-1.146857497799101
147,0.05743450804915716,106.70740639380469,-1.1420050442707075
148,0.05772428524537219,106.69078693607496,-1.1960557817729547
149,0.058086738955493454,106.66999919660302,-1.1405207521531626
150,0.05844919266561472,106.64921135155468,-1.1329239116170327
151,0.05868296590358551,106.6358036746309,-1.1681934417679893
152,0.0589167391415563,106.6223959521852,-1.1699634080232957
153,0.05917778538783676,106.60742397247596,-1.1197590673241364
154,0.059564510575177386,106.58524373337073,-1.1824842625483791
155,0.05995123576251801,106.56306336884963,-1.1802658130571708
156,0.06034763451376296,106.54032805310176,-1.1791578816288653
157,0.060733336543161306,106.51820611777778,-1.23071364828027
158,0.06108084015150938,106.49827494262452,-1.1705945152922124
159,0.06142834375985745,106.47834366679189,-1.1628671089687659
160,0.061655983613254806,106.46528719375561,-1.203216102392064
161,0.06188362346665216,106.45223067648529,-1.2009265583428705
162,0.06214129731598637,106.43745147540021,-1.150098902448491
163,0.06254023616284235,106.4145697381705,-1.194034719191419
164,0.06290954646496837,106.39338727197172,-1.185452516700304
165,0.06317656680513313,106.37807176133794,-1.1325155764930552
166,0.0634435871452979,106.36275619252413,-1.1705579669810575
167,0.0637269755081609,106.34650173327304,-1.2195251658480382
168,0.06414548722185301,106.3224968066093,-1.1546055778790132
169,0.0645334453949815,106.30024424034349,-1.1964894576397027
170,0.06489804478900785,106.27933137559522,-1.1872875680838764
171,0.06516565382999227,106.26398165790056,-1.1339375941554375
172,0.0654332628709767,106.24863188222162,-1.1283176273913618
173,0.06572525796419897,106.23188328202855,-1.1822088326544644
174,0.06653952447885546,106.18517724834024,-1.1685865587660973
175,0.06695166938244315,106.16153655808857,-1.162345562399405
176,0.06736381428603085,106.13789572749089,-1.1561335236937624
177,0.06765350724007342,106.12127871652221,-1.2059252216641316
178,0.067943200194116,106.10466163393923,-1.2012582082149994
179,0.06817334091723999,106.09146047687777,-1.158663028133654
180,0.06840348164036399,106.07825927617853,-1.1491093901768532
181,0.06866063353251553,106.06350862491199,-1.1837456828030801
182,0.06923737369491548,106.03042567113938,-1.085832831349575
183,0.06957101925119535,106.01128698340558,-1.1399795230986787
184,0.06990466480747523,105.99214820557926,-1.1396090130700134
185,0.07016259507187615,105.97735259201136,-1.0903133148276747
186,0.07042052533627707,105.9625569265547,-1.0840531043942059
187,0.07070254422618767,105.94637940500733,-1.1287635252003199
188,0.07107733548028805,105.92488006078653,-1.0691754709806505
189,0.07145212673438843,105.90338060896406,-1.0675980885964016
190,0.07168833588108597,105.88983069899749,-1.1147916562179319
191,0.07192454502778352,105.87628074512914,-1.0749260611488758
192,0.07222843465517477,105.85884829041811,-1.0255759983358814
193,0.07268825631036517,105.83247075298117,-1.0949845746448443
194,0.0735037886869256,105.7856875737146,-1.1147318039550087
195,0.07402059688344592,105.75604049800256,-1.1176333999918624
196,0.07453740507996624,105.72639320982597,-1.1058703008512156
197,0.07502249146352541,105.69856548779738,-1.1054384990748358
198,0.07549481403843056,105.67146980314476,-1.0992736565596906
199,0.07595433008037931,105.64510862181335,-1.1004555760660555
200,0.07640811507952455,105.61907605204635,-1.0985358617969514
201,0.07666973787322272,105.60406729978644,-1.1367168194603976
202,0.07693136066692088,105.5890584922577,-1.137249246938015
203,0.0772169203564061,105.57267640710724,-1.080742304693425
204,0.07773704297221462,105.54283767267464,-1.163566424773665
205,0.07808018942180552,105.52315170367274,-1.1081543174344417
206,0.07842333587139641,105.5034656426443,-1.1002071587904956
207,0.07867853557852708,105.48882496226776,-1.137101971713963
208,0.07893373528565775,105.47418422932718,-1.137357646705891
209,0.07921392844207233,105.45810956909011,-1.0815027735455192
210,0.07972610516343653,105.42872587073676,-1.1619417580366649
211,0.08006369582119413,105.40935810060184,-1.096929762366867
212,0.08040128647895173,105.38999024197471,-1.091341744834585
213,0.08075203536048964,105.36986739108661,-1.144276274049067
214,0.08153939681261255,105.32469523735908,-1.1487576694175399
215,0.08195309768585718,105.30096037440154,-1.1428552077687208
216,0.08236679855910181,105.27722537276924,-1.1372746307705093
217,0.08264707511511599,105.26114516312471,-1.1723835643712466
218,0.08292735167113016,105.24506488840451,-1.167652351294596
219,0.08323108604677014,105.22763869788213,-1.1040927838269026
220,0.08359206809938952,105.2069279339433,-1.1569284446237988
221,0.08395305015200889,105.18621706373409,-1.1509781984436351
222,0.08418620996356196,105.17283976966263,-1.107529380620205
223,0.08441936977511504,105.15946243251533,-1.1360662797939818
224,0.08469251398708147,105.14379097044171,-1.171084184335097
225,0.08521551878262729,105.11378375882528,-1.0788776906275417
226,0.08556069548150713,105.09397925302225,-1.131693685510662
227,0.08590587218038698,105.07417465201738,-1.1276707380236375
228,0.08617160207754425,105.05892826649031,-1.0741058882833836
229,0.08643733197470152,105.04368182694736,-1.065109415483531
230,0.08672649917411167,105.02709059471613,-1.1095766644908096
231,0.08743434959891952,104.98647675632047,-1.1191853830765117
232,0.08794987193350991,104.95689774444439,-1.112317484454266
233,0.08844989170496811,104.92820801924249,-1.103221370988664
234,0.08890675548133078,104.90199429283597,-1.0907960285919942
235,0.0893565172161802,104.8761879062421,-1.0856934988509708
236,0.08965975821856799,104.85878848490859,-1.1391741812176381
237,0.08996299922095578,104.84138899050507,-1.0831316567538902
238,0.09032823006729591,104.82043252262677,-1.082120249129212
239,0.09069951048849295,104.79912883302549,-1.1337043917254739
240,0.09115910844250542,104.77275742318639,-1.0546226811319779
241,0.09150653259242848,104.75282236117891,-1.1011285912659114
242,0.09171566723323553,104.74082225263216,-1.1377885243318282
243,0.09192480187404257,104.7288221092264,-1.0982755411225538
244,0.09221357791228035,104.7122520875395,-1.0456466084859166
245,0.09275394825643765,104.68124537015666,-1.1178476820802883
246,0.0934782940653241,104.6396816962997,-1.1219785115931284
247,0.09417952575771892,104.59944393759471,-1.1218710570685075
248,0.09456701070462523,104.57720928172965,-1.1631659325116075
249,0.09495449565153154,104.55497450325429,-1.1506730506151632
250,0.09534759807539522,104.53241725671616,-1.1379468160352202
251,0.09574305603167076,104.5097247182444,-1.1979814304777237
252,0.09660089921812952,104.46049871524197,-1.169352443741646
253,0.09749919250741462,104.40895091564512,-1.1544689490339277
254,0.09800738685912816,104.37978832707046,-1.1427253067045906
255,0.0985155812108417,104.35062553071387,-1.1209422363069177
256,0.09899462576999113,104.32313531184437,-1.1081001026893935
257,0.099461051667698,104.29636904888125,-1.094915475735154
258,0.09991680452210497,104.2702151053034,-1.088171973355385
259,0.10036778808100427,104.24433469615228,-1.0835940238439934
260,0.10066137562565085,104.22748662453314,-1.121464872242013
261,0.10095496317029742,104.21063848476776,-1.1177953285339752
262,0.1011835522405695,104.19752037226888,-1.069597453448395
263,0.10141214131084159,104.18440221986857,-1.1004544233871452
264,0.10166920862918812,104.16964972401225,-1.1424097309053782
265,0.10261998514934675,104.11508642012943,-1.1083941087633675
266,0.10357076166950539,104.06052242979702,-1.1026406617546791
267,0.10456883085186432,104.00324363722805,-1.0794946080908119
268,0.10554564411064331,103.94718400248678,-1.0772196573195012
269,0.10596509685649444,103.92311125416381,-1.0723076786000818
270,0.10638454960234557,103.89903837247859,-1.0652647083017208
271,0.10666434765646524,103.88298036299213,-1.1016282851037604
272,0.1069441457105849,103.86692229274102,-1.09858688292627
273,0.10716632299863954,103.85417112974054,-1.0519386529954056
274,0.10738850028669418,103.84141992997664,-1.0453353451888754
275,0.10763813251802169,103.82709299231215,-1.0893952139863172
276,0.10797117884112502,103.80797866376916,-1.0871972682600057
277,0.10818182767580103,103.79588897804541,-1.0475916070926667
278,0.10839247651047705,103.78379925943163,-1.0393233557671149
279,0.10862880265424517,103.77023581018086,-1.0713026933142096
280,0.10903955891295182,103.74666120477656,-1.0689927083359936
281,0.10945031517165847,103.7230864722447,-1.0574198597762676
282,0.10986020877259509,103.69956112493219,-1.0526209853840656
283,0.11014228869333438,103.68337141618494,-0.9967652631417709
284,0.11042436861407368,103.6671816510593,-0.9896830248764985
285,0.11072560523735625,103.64989233945286,-1.0372578308531613
286,0.11142313397944335,103.60985780637803,-1.0487923458703283
287,0.11192710045062726,103.58093252207148,-1.042896044137072
288,0.11241507228243675,103.55292507548558,-1.0360219046048689
289,0.11287052106565687,103.52678415260056,-1.0219339992659828
290,0.11313583863691638,103.51155592449184,-0.9702358601782679
291,0.1134011562081759,103.49632764773929,-0.9671870063675664
292,0.11368748221529353,103.47989350761387,-1.0234414689571754
293,0.11406770636618213,103.4580698436394,-0.9581436791455703
294,0.11444793051707074,103.43624608691341,-0.9548841646041342
295,0.11467853216202838,103.42301017779918,-0.9926376705662905
296,0.11490913380698602,103.40977423123631,-0.9957910373300479
297,0.1151640743670148,103.39514124940851,-0.9468981755801319
298,0.11552352547257948,103.37450953557918,-0.9993788714539151
299,0.11585447697619211,103.3555135574457,-0.9999898459511188
300,0.11619882270144108,103.33574869467242,-0.9339087398507475
301,0.11671972482810632,103.3058496404143,-1.009960302912535
302,0.11764528913250798,103.2527230774612,-1.0222565590150043
303,0.11869178588369973,103.19265438398239,-1.0018860420089675
304,0.11972723479777723,103.13321909710405,-1.014016479566085
305,0.12110361465375864,103.05421306994931,-0.814905690272158
306,0.12149198793607188,103.03191972036139,-0.822385072826187
307,0.12187933030959469,103.00968545756628,-0.8376103187702023
308,0.12214542173874972,102.9944112000445,-0.7944164458915829
309,0.12241151316790475,102.97913690173347,-0.7984121425830374
310,0.12269339987122696,102.96295587131877,-0.8557316305657325
311,0.12302919845612792,102.94368009575047,-0.8100306936775395
312,0.12336499704102888,102.92440425415938,-0.8184101196673056
313,0.12370654084795546,102.90479855116844,-0.8961737030990901
314,0.12404342416594565,102.8854603041047,-0.8451788514366488
315,0.12438030748393583,102.86612199265107,-0.8531021087467002
316,0.12471385825400706,102.8469749129307,-0.9147495464304481
317,0.12519320691483773,102.81945835626604,-0.8448060485958422
318,0.12554047916890412,102.79952343204427,-0.9103150580589585
319,0.1258877514229705,102.7795884299231,-0.9165611679527119
