,time,theta,torque
0,0.0,1.9198621771937625,-4.3763489352525236
1,0.0009636987776423723,1.918898456571101,-3.634926843533138
2,0.0018963469640166522,1.9179657496970062,-3.0980443823688906
3,0.0028048891281445736,1.9170571198816844,-2.689851855985565
4,0.003316993286038479,1.9165449546050062,-2.575856800918477
5,0.003829097443932385,1.9160327813407136,-2.405249944174399
6,0.004374174305236032,1.9154876227112139,-2.165090432604316
7,0.004992445667908484,1.9148692492358594,-2.093720733753675
8,0.005368852537193922,1.9144927755361782,-2.0665210076651293
9,0.00574525940647936,1.9141162983253368,-1.988153460647033
10,0.006161643573396923,1.9136998324091081,-1.8432554856001948
11,0.007983095108868228,1.9118779809354651,-1.3536351734940508
12,0.008380889880581872,1.9114800908126757,-1.271006951227708
13,0.008778684652295516,1.911082198163759,-1.2683188761893602
14,0.009186014730618516,1.9106747652483607,-1.3463706283706105
15,0.010308631217494058,1.9095518513262246,-1.1682745292760957
16,0.01089085008202156,1.9089694707819984,-1.1781256932796016
17,0.011442031911634197,1.908418131237047,-1.2931591060832701
18,0.012094362564710574,1.9077656077066492,-1.1899549363197608
19,0.012746693217786952,1.9071130777889673,-1.1986715237329424
20,0.01335177461130392,1.9065078058160576,-1.3210883708901389
21,0.014346659938076673,1.9055125943760047,-1.1612929550722295
22,0.015155658547377377,1.9047033195951106,-1.3142488640973229
23,0.015919582001092576,1.9039391256718523,-1.3066791620921188
24,0.016310318186056813,1.9035482474205132,-1.2270431457087647
25,0.01670105437102105,1.903157366812784,-1.2261670548417112
26,0.017101164480228196,1.9027571063746982,-1.3054431069758423
27,0.017939482247406744,1.901918465073966,-1.2969886666180823
28,0.018355218216807894,1.9015025643771175,-1.2127140793926712
29,0.018770954186209044,1.9010866610417019,-1.2127226966890954
30,0.01919127845312882,1.9006661648788261,-1.296713728091585
31,0.02017013592206926,1.8996868962915523,-1.1392141487205094
32,0.020908870256969185,1.8989478425001487,-1.1531133220813357
33,0.02133568213847632,1.8985208424770412,-1.243321319847687
34,0.021762494019983453,1.8980938396237605,-1.2472377021211425
35,0.022193897291849153,1.8976622404435288,-1.1640246419254658
36,0.02291819730771662,1.8969376054262146,-1.1730270132376093
37,0.02328881492122749,1.8965668134440277,-1.250569568054509
38,0.023659432534738362,1.8961960193177143,-1.2528829556981633
39,0.02404404248949461,1.8958112239176257,-1.17667905257469
40,0.02473799533639886,1.8951169309894849,-1.1822639606677467
41,0.025373295927043297,1.8944813127871014,-1.307328576667174
42,0.026328988158426044,1.8935251307456225,-1.1476627296911588
43,0.02684528053664444,1.8930085681874584,-1.1531384758722814
44,0.02734448284987608,1.8925091009490902,-1.2570961511753083
45,0.02817145229147955,1.8916816842302828,-1.1245523172501293
46,0.028902755816007975,1.8909499770630134,-1.1369562934488116
47,0.02932665314941843,1.8905258422966535,-1.2275586780402445
48,0.029750550482828885,1.8901017047778792,-1.230441784555605
49,0.03017938511850422,1.8896726243542936,-1.1467850721607622
50,0.030857656150142906,1.888993959190935,-1.1534453101186624
51,0.03147937750790208,1.8883718706991535,-1.2761978741085265
52,0.032418005228828664,1.8874326773928753,-1.1223913300989972
53,0.03321546137132314,1.8866347306733304,-1.2701508850647711
54,0.033972804120212974,1.8858769128708237,-1.2606414678030928
55,0.03435901759969545,1.8854904536199824,-1.180598254028686
56,0.03474523107917793,1.885103992157872,-1.1787886040809148
57,0.03514026416680271,1.884708703139192,-1.256774512927476
58,0.036000726125074385,1.8838476751369422,-1.246633087909083
59,0.03669771303210866,1.883150221248213,-1.2350923354330614
60,0.03733641933855528,1.8825110804441625,-1.3435860428032975
61,0.03789538144891933,1.8819517325583686,-1.324484992695582
62,0.038440997614333165,1.8814057349001898,-1.2044898012984384
63,0.038879140715922605,1.880967282143942,-1.2741702736255416
64,0.039317283817512046,1.8805288263612572,-1.3446428404304849
65,0.040205249189691296,1.8796402177548113,-1.1810200838859706
66,0.04089460408267572,1.8789503554186084,-1.177453503194332
67,0.04130308602081168,1.8785415695234564,-1.2540706059625335
68,0.04171156795894764,1.8781327810329191,-1.2498192098680432
69,0.04212845215277766,1.8777155813153439,-1.163110820796004
70,0.04280893319796451,1.8770345798546002,-1.1620803438075675
71,0.04343258583452079,1.8764104443491165,-1.2791380473968708
72,0.044051496794415786,1.875791048232634,-1.1676367935502199
73,0.04467040775431078,1.8751716465221582,-1.1645487860009283
74,0.04524835934815401,1.8745932316153051,-1.2728928417992336
75,0.04607119455006214,1.8737697276565513,-1.2534169769594572
76,0.04682166341046321,1.8730186396523751,-1.235051053323971
77,0.047499073742285576,1.8723406630377422,-1.3432632549983066
78,0.049291449225389423,1.87054675460918,-1.0380249375784951
79,0.04998956340232278,1.8698480316957202,-1.1736431271162162
80,0.05068767757925614,1.869149301883174,-1.186946267190803
81,0.05135751972596752,1.8684788622637682,-1.2995066810433398
82,0.05230513479421082,1.8675303900224938,-1.126465551804222
83,0.05282133357572687,1.8670137189012022,-1.124897387090515
84,0.053319115913920495,1.8665154775155768,-1.2218850088834443
85,0.054342112657122195,1.865491525928136,-1.051087872112603
86,0.05477968572302025,1.8650535401303459,-1.0562078842888811
87,0.05521339979585037,1.8646194144452228,-1.1498792615448772
88,0.05603084362441184,1.8638011873845888,-1.1510119814246502
89,0.05676890913640939,1.863062406434493,-1.145387791631594
90,0.057433662563522725,1.8623970019773242,-1.2654479684777578
91,0.059218475066289196,1.8606104092577893,-0.9776762263178457
92,0.059914853527828375,1.8599133253019524,-1.1181158879964408
93,0.06030634943514841,1.859521429931123,-1.061157039442368
94,0.06067336282529322,1.8591540402890865,-1.0628343558149587
95,0.06104863159291964,1.8587783849420187,-1.1405157675366797
96,0.06184738354617403,1.8579788033886775,-1.1393656125624398
97,0.062292018298259554,1.8575337028512673,-1.051105530318854
98,0.06273665305034508,1.8570885996954238,-1.0539622850245198
99,0.06317572858306778,1.8566490590406444,-1.1460127253203598
100,0.063866355530997,1.855957694884022,-1.144761067443864
101,0.06427057282242223,1.8555530429242397,-1.0625357595762193
102,0.06467479011384746,1.8551483887817293,-1.0633368764835949
103,0.06508144971903922,1.8547412874816065,-1.1476616113301028
104,0.06584596351983883,1.8539759368277131,-1.144146139075581
105,0.06627844589815358,1.8535429773132825,-1.0558611587854456
106,0.06671092827646834,1.8531100153155924,-1.0569509895379001
107,0.06714036217974609,1.8526801027149817,-1.1458172781385851
108,0.06890449507691536,1.850913974191526,-1.3950851861702227
109,0.0699129751243924,1.8499043300681195,-1.477661127256209
110,0.07092145517186944,1.8488946681946568,-1.39652387198352
111,0.07183641755474536,1.8479786186365015,-1.3239687750064075
112,0.07228248695327406,1.8475320141799174,-1.2151232059498214
113,0.07272855635180277,1.8470854067354394,-1.1970645129770296
114,0.07317484323213543,1.8466385785975266,-1.266510792529136
115,0.07386597149323165,1.8459466059924734,-1.2370670429461035
116,0.07427570708549491,1.8455363663554267,-1.1430663034459267
117,0.07468544267775817,1.8451261243340171,-1.133199576751818
118,0.07509891446361461,1.8447121391025871,-1.2066068369640046
119,0.07576547617564042,1.844044744269874,-1.1886704971045245
120,0.07639060138916598,1.8434188318062144,-1.0538862321192617
121,0.07701782673146398,1.8427908112597509,-1.1619260772714914
122,0.07737484275520633,1.842433340136755,-1.2217819758166697
123,0.07773185877894867,1.8420758671004829,-1.2112367096142755
124,0.07810514268063413,1.841702103334489,-1.126303613096658
125,0.07867922319295216,1.8411272810631243,-1.1150643526467494
126,0.0792211041251954,1.8405846957878749,-1.2105025811021748
127,0.08014312681649959,1.8396614648759007,-1.0402926188014798
128,0.0808401246837595,1.8389635462701293,-1.040657780301203
129,0.08147020889542934,1.8383326242831548,-1.1609067458232583
130,0.08239156698453502,1.8374100312004762,-1.001104813269278
131,0.08311812905310148,1.8366824875110912,-1.132721209861754
132,0.08384469112166794,1.835954936524934,-1.1228931860314233
133,0.08426168240590318,1.8355373743197139,-1.0345572343601344
134,0.08467867369013841,1.8351198098636605,-1.0325580059629067
135,0.08509477646455627,1.8347031328991301,-1.116147489814574
136,0.08585810244482747,1.8339387472899746,-1.1078416346694817
137,0.08628822754674384,1.8335080215276782,-1.0175807458561648
138,0.08671835264866021,1.8330772934071995,-1.0166933604646322
139,0.08714464980528114,1.8326503962743397,-1.1035256323549536
140,0.08891614204511263,1.8308763826503296,-1.3494344776926954
141,0.08992644817739219,1.829864616012189,-1.4303855778755556
142,0.09093675430967176,1.8288528322059472,-1.3469205194878446
143,0.09185189194927888,1.8279363417037746,-1.2730364546382333
144,0.09229499445051788,1.8274925793705907,-1.1638303747278824
145,0.09273809695175687,1.8270488142216619,-1.1454082622263169
146,0.09318003218575321,1.8266062153219056,-1.2144934910310135
147,0.0938873048601848,1.8258978744404242,-1.1838620678289475
148,0.09430056746990603,1.8254839842634105,-1.0883166495799212
149,0.09471383007962726,1.8250700917825942,-1.0782714149193309
150,0.09512836879652779,1.8246549189544434,-1.1525057786765482
151,0.09592623223462406,1.8238558281093697,-1.1299170603217294
152,0.0963200767299555,1.8234613744087662,-1.0425921940931593
153,0.09671392122528695,1.823066918696506,-1.0367030992313295
154,0.09711128468665771,1.8226689365282591,-1.112690033403454
155,0.0978741553642767,1.8219048718917585,-1.0985664841161944
156,0.09830365225449522,1.8214746992783035,-1.0059698190007107
157,0.09873314914471375,1.8210445243489852,-1.0029061491145022
158,0.09915845566795622,1.820618544126763,-1.0875334654923463
159,0.10015877004555225,1.8196166359480648,-0.9177166775860646
160,0.10081156792840687,1.8189627916767415,-0.9268139153615487
161,0.10140594076386786,1.8183674617963974,-1.051300375674197
162,0.10208547987475262,1.8176868230318315,-0.9373390337434785
163,0.10276501898563739,1.8170061788528387,-0.9436749401320235
164,0.10338044166180935,1.8163897506738238,-1.0706013039940967
165,0.10433995253699446,1.815428662463412,-0.9087575657706927
166,0.10486806447983894,1.8148996778131936,-0.9149703322362835
167,0.1053689868713404,1.8143979246830853,-1.0235065713637692
168,0.10634764088463874,1.813417638769922,-0.8669295748097392
169,0.1067685464968708,1.8129960280205133,-0.8745610664784847
170,0.10718415454701281,1.8125797217877955,-0.969442657452955
171,0.10792066872558115,1.8118419651323814,-0.9779018881920378
172,0.1082859208893839,1.8114760943118964,-0.9054624935697634
173,0.10865117305318664,1.8111102219733082,-0.908442634283653
174,0.10902199156224168,1.810738772279711,-0.9899946923954055
175,0.11008328651070041,1.8096756618317353,-0.8273242409198978
176,0.11075254674957849,1.8090052506145877,-0.845738692239853
177,0.11135763676622343,1.8083991158675756,-0.9808871072921655
178,0.11235671234282046,1.8073983059118748,-0.8274603587064314
179,0.11309222602367852,1.8066615085008444,-0.9769589028320814
180,0.11382773970453658,1.8059247046486833,-0.9812254786753737
181,0.1144937135359536,1.8052575569495397,-0.8504543149105753
182,0.11503896171860117,1.804711344037402,-0.9579593682457797
183,0.1153524847743537,1.8043972646875495,-1.0219150982493104
184,0.11566600783010622,1.8040831840998988,-1.0216349308879102
185,0.11599596812744702,1.8037526357062565,-0.9514134249489885
186,0.11636250124381699,1.8033854478023403,-0.8789256266867637
187,0.11672903436018696,1.8030182584149976,-0.8822637347892459
188,0.11710029899500347,1.8026463275192663,-0.9645087846679766
189,0.11784744805351663,1.8018978325566133,-0.9692173824643977
190,0.1182644906108936,1.8014800357849847,-0.8851995484014482
191,0.11868153316827057,1.8010622370818488,-0.8882356759184029
192,0.11909399201671343,1.8006490284933496,-0.9779603098312879
193,0.11997251804601088,1.799768898492499,-1.134160341496597
194,0.12085104407530832,1.7988887581733053,-1.1120489383027774
195,0.12129338267849499,1.7984456028649607,-1.1742134259962322
196,0.12173572128168166,1.7980024447689695,-1.1519767355656212
197,0.1221799058568234,1.7975574345261491,-1.0457674105970234
198,0.12283077996200023,1.7969053460184632,-1.0280134578092561
199,0.1234257220991661,1.7963092891524992,-1.127707127160246
200,0.12438264140457755,1.795350567031179,-0.9435549625459051
201,0.12509513146047702,1.7946367274735757,-1.0646313718366502
202,0.12580762151637648,1.793922881394607,-1.0474012762977096
203,0.1264612021418843,1.793268051131631,-0.9057013692417492
204,0.12717932134387006,1.79254855316729,-1.0334495195949882
205,0.1278974405458558,1.7918290487632993,-1.021077990161139
206,0.12830593743014532,1.7914197609887599,-0.9319493897289429
207,0.12871443431443483,1.7910104712832946,-0.9283032465688019
208,0.12912063744692717,1.7906034778736566,-1.0097222993714874
209,0.1318089602937926,1.7879098778045668,-1.1236492181066402
210,0.13227858483569066,1.7874393270275122,-1.0116225244312966
211,0.13274820937758872,1.7869687735067168,-0.9981034055530802
212,0.1332047169933888,1.786511360263574,-1.077547512122048
213,0.13394991319533398,1.7857646797995161,-1.0525811905521132
214,0.13432209490104555,1.7853917540666588,-0.9673534652008375
215,0.13469427660675712,1.7850188266812457,-0.9594502711110191
216,0.13507167499099434,1.7846406704898303,-1.0304486042721017
217,0.13580681256657465,1.783904051553653,-1.014474654695918
218,0.13647587640184425,1.7832336336653727,-0.8703240347791811
219,0.1371931916170685,1.7825148611805384,-0.9998863325229508
220,0.13791050683229275,1.7817960824894825,-0.9893105721229205
221,0.13831703568944198,1.7813887214129933,-0.9009295099947394
222,0.1387235645465912,1.7809813584899292,-0.8977838972860166
223,0.13912735896273162,1.7805767337960425,-0.9796328277351208
224,0.13997868632238628,1.7797236493744177,-1.1196248583694315
225,0.14083001368204093,1.7788705554427438,-1.0907946052632782
226,0.1412563651287951,1.77844331572575,-1.1472894858578457
227,0.1416827165755493,1.77801607349236,-1.1230918518751198
228,0.14211283953877182,1.77758504936401,-1.0177397049492505
229,0.14274418028974117,1.7769523817485549,-0.9972341882596969
230,0.14332348760530075,1.7763718526487564,-1.091997764707888
231,0.14378088277072662,1.7759134897007296,-1.0730622521901725
232,0.1442343326587407,1.7754590776930301,-0.9656891459086399
233,0.14486403193174413,1.774828038335809,-0.9518803334232919
234,0.14544083887667467,1.7742499998049674,-1.0542511307940212
235,0.14639137626520632,1.7732974238841845,-0.8741218313725484
236,0.14709770141633535,1.7725895773963614,-0.9972766015751069
237,0.14780402656746439,1.7718817249297378,-0.9831129022022836
238,0.1484491044629119,1.7712352469218722,-0.8436456701903694
239,0.1494203835624793,1.7702618516672686,-0.6658706953158946
240,0.1503916626620467,1.7692884483891893,-0.5208569091588074
241,0.15104727813490962,1.7686313952202848,-0.6843580218705764
242,0.15169054378863658,1.7679867155674907,-0.7157407111805155
243,0.1522745123108459,1.7674014601657204,-0.6191189120825644
244,0.1528099157791194,1.7668648744417255,-0.6423108146153657
245,0.15330955605008814,1.7663641287657121,-0.7682677473642362
246,0.15440198237080097,1.7652692775735421,-0.6216314062483523
247,0.15507055281381166,1.7645992182743848,-0.7747468623062627
248,0.15573174363618383,1.763936550981471,-0.7941049220841435
249,0.15633230140138793,1.7633346484092336,-0.6836083648159715
250,0.15685265723846795,1.7628131248148147,-0.6987429927029442
251,0.1573417827086342,1.7623228994979867,-0.8157040113587581
252,0.15816356109433216,1.7614992680119546,-0.6924502724466768
253,0.15879542279785283,1.7608659774443558,-0.7098425512178221
254,0.15936889722890696,1.7602912031063915,-0.8436491758367107
255,0.15979948411882966,1.759859638021893,-0.7734960930267417
256,0.16023007100875236,1.7594280711584005,-0.6945777625606412
257,0.16083966133911556,1.7588170907134806,-0.7100989988486817
258,0.1613954776611982,1.7582600040217322,-0.8374212972219788
259,0.16204460915788768,1.7576093849746746,-0.7347783208466993
260,0.16269374065457717,1.7569587620715632,-0.7466186546177703
261,0.16328012155204422,1.756371030574802,-0.8767075348551322
262,0.16396675985609785,1.755682806046679,-0.8777447831568188
263,0.1643103860758694,1.7553383840673085,-0.8056229659136208
264,0.16465401229564094,1.7549939609106373,-0.8050599524190704
265,0.1650041595059993,1.7546430004286422,-0.879982419353508
266,0.16536623544774393,1.7542800821197915,-0.9498597606944243
267,0.16572831138948854,1.7539171623005065,-0.9447925473028496
268,0.1660975549772076,1.7535470565836382,-0.8620517016348511
269,0.16675432576156402,1.752888748835627,-0.8554039106679782
270,0.16734825142193788,1.7522934293875254,-0.9694709147864002
271,0.16817824617806126,1.7514614801531232,-0.8152956523286669
272,0.16881585482211411,1.7508223653322945,-0.8142754321827592
273,0.1693949540998074,1.75024189456184,-0.9316135876946053
274,0.16977756120908408,1.7498583792922557,-0.8599003177267378
275,0.17016016831836075,1.749474862484318,-0.780919217644824
276,0.1707566427565206,1.7488769670666917,-0.7835360664570564
277,0.17130423459889482,1.748328067669801,-0.8964520810496002
278,0.17232449881879622,1.747305358868475,-0.7249298523741601
279,0.17284210584718926,1.7467865079912384,-0.731722471792628
280,0.17332908007652847,1.7462983613019125,-0.8404202380908281
281,0.17438249962998625,1.7452423975032825,-0.6737981588335239
282,0.17511475812639204,1.7445083647451318,-0.8286998967755713
283,0.1757781000495702,1.7438434111388725,-0.8333559837793193
284,0.17638170132721054,1.7432383394312,-0.7117257108381614
285,0.1770959655096262,1.7425223309274473,-0.8552620359233107
286,0.1777590527987459,1.7418576197603388,-0.855079472034885
287,0.17836355701198453,1.7412516311449915,-0.7301221019659844
288,0.1793504030770419,1.7402623549123144,-0.5564506067046944
289,0.18033724914209925,1.7392730717376716,-0.4149847813905128
290,0.1808067947364295,1.7388023645726487,-0.4459766645465235
291,0.18125114810812515,1.738356910758949,-0.5683694259723017
292,0.18260304541384662,1.7370016572107385,-0.4701420684166432
293,0.1831196593183716,1.7364837579275716,-0.6104944135784841
294,0.18363627322289658,1.7359658566050282,-0.6372380884317864
295,0.18412099237190951,1.735479927591984,-0.5552201256166012
296,0.1847218147034851,1.7348776033083102,-0.5800194740785994
297,0.18526836981456957,1.7343296796078147,-0.7165229335263258
298,0.18581647072070864,1.733780203600014,-0.7323221256983906
299,0.18632783733612213,1.7332675516064624,-0.6360645701272519
300,0.18684269238469017,1.7327514003033695,-0.6486539810502082
301,0.1873256494011035,1.732267225392458,-0.7627701408108343
302,0.18787983058407928,1.7317116440145688,-0.7725830781510685
303,0.1883970944823042,1.731193070582072,-0.6707090658217727
304,0.18940678435251504,1.7301808183536846,-0.499908005982611
305,0.19041647422272587,1.7291685595540878,-0.36087569202407366
306,0.19104249454266312,1.7285409437898576,-0.5262788555254825
307,0.19164405716308172,1.7279378458739043,-0.5633687436342595
308,0.19219137621774832,1.7273891277341986,-0.4778402215128791
309,0.19276633346419686,1.7268126987592742,-0.5076444683689934
310,0.19329152291874113,1.7262861630968398,-0.6444904681570865
311,0.19437830142836682,1.7251965922176566,-0.5036977698865045
312,0.19502358497774433,1.7245496469775614,-0.656930966300798
313,0.19536777191188764,1.7242045724996284,-0.7377259577152797
314,0.19571195884603096,1.7238594969549723,-0.7455479961319115
315,0.19606088322194723,1.7235096706397612,-0.6762939079045961
316,0.19669855579130988,1.7228703471665017,-0.6851202647205759
317,0.1972741378480586,1.722293272013293,-0.812483421858034
318,0.19782201863210996,1.7217439669804098,-0.8134183136756294
319,0.1983357903032962,1.721228857046265,-0.7057622610794161
320,0.19932799387316957,1.720234062779016,-0.5271490606729965
