,time,theta,torque
0,0.0,110.0,-4.3763489352525236
1,0.0005470457193979358,109.96865617363483,-3.9254659020525624
2,0.0010940914387958715,109.93731156638238,-3.5520466595176208
3,0.0016740935288750746,109.90407784942636,-3.2879187615197107
4,0.0025203830245278717,109.85558475165429,-2.8837394827565728
5,0.002959779631731382,109.83040640076675,-2.7022089098381388
6,0.0033991762389348926,109.80522769723123,-2.5343367300546387
7,0.0038811750662085705,109.77760738099617,-2.3782299501657223
8,0.004399242114641478,109.74791980344003,-2.224840281889915
9,0.004952047234797539,109.7162411272261,-2.089228767904538
10,0.005527667380399981,109.6832545629264,-1.9626789426118316
11,0.006129675770341691,109.64875530993886,-1.8558186412377538
12,0.006739564540122341,109.6138039772915,-1.8333494993047583
13,0.007165394870486531,109.58940033854009,-1.7122438083808136
14,0.0075912252008507215,109.56499648146394,-1.7133552135804289
15,0.008009225197848361,109.54104116262336,-1.6662349208951182
16,0.008452791132961391,109.51562045356194,-1.615790101834004
17,0.00892444322986205,109.48858988534002,-1.5750128044856329
18,0.009409653223298644,109.46078205206697,-1.5322887272163683
19,0.009914909433953263,109.43182508125885,-1.5000521451316422
20,0.010424835640762983,109.40260019233212,-1.4658429489873603
21,0.010943414160709111,109.3728791454265,-1.4420011220838311
22,0.011461206040483505,109.3432029089642,-1.4153387924265801
23,0.011978853351254959,109.31353468896062,-1.3986653179505661
24,0.01249336344223664,109.28404601059687,-1.3777814819047844
25,0.013003316250101244,109.2548182727236,-1.366405297343988
26,0.01350957729743936,109.2258018765563,-1.3497557437308867
27,0.014010329872977517,109.19710095636795,-1.342279602092
28,0.014508376753670069,109.16855487676321,-1.3285502541407272
29,0.015000739179968596,109.14033437642601,-1.3237150390501273
30,0.015490160605678097,109.11228221715739,-1.3121417005333535
31,0.01597457888327819,109.08451660210261,-1.3093005269697258
32,0.01645673747863036,109.05688028844001,-1.2992387120813542
33,0.016934445004869073,109.02949888766975,-1.2977372167301442
34,0.017410486822845815,109.00221275208035,-1.2888195285607917
35,0.017882852330877594,108.97513713152321,-1.2884147841163818
36,0.0183540825181354,108.94812638194686,-1.2803573640196726
37,0.018637782800737163,108.93186468338219,-1.3321089428026849
38,0.018921483083338925,108.91560290850828,-1.328857409494845
39,0.01923282265346716,108.89775675491413,-1.2627283776425655
40,0.019577155627315695,108.87801929823164,-1.317013948197812
41,0.01992148860116423,108.85828173050035,-1.3139914006817772
42,0.020183451382483383,108.84326564370973,-1.258761752805089
43,0.020445414163802536,108.8282494945221,-1.2966515055044654
44,0.020728811811063,108.81200459129141,-1.3462246837458873
45,0.021536145083230783,108.76572626647744,-1.340096904041647
46,0.02199237099021882,108.73957400604067,-1.3316226578543464
47,0.02244859689720686,108.71342154846656,-1.3170084634259567
48,0.022907250222208728,108.68712974586484,-1.3110509277218068
49,0.02336850217651796,108.66068878159287,-1.2985260292993326
50,0.02364945950530981,108.64458299179124,-1.3468171750301128
51,0.02393041683410166,108.6284771265249,-1.341152235408742
52,0.02423989362296007,108.61073629772737,-1.2734843995870206
53,0.024572897841728766,108.59164665516309,-1.323305028739277
54,0.024905902060497462,108.57255690843878,-1.3183621593001886
55,0.025162454031084844,108.55784977998354,-1.2629900369533973
56,0.025419006001672226,108.54314259202646,-1.2577305206059166
57,0.025704545492041812,108.52677358557035,-1.310210804166006
58,0.026726662483126298,108.46817848940366,-1.3050312380579283
59,0.02716446342501862,108.44308030270035,-1.2275543659489316
60,0.02754611692685637,108.4212007887551,-1.2793396927800864
61,0.02789686099455675,108.40109314165089,-1.2776038831548868
62,0.028160687249351085,108.38596829222769,-1.222445015857133
63,0.028424513504145422,108.37084338173726,-1.2191745518471837
64,0.028715397741596267,108.3541671918905,-1.2753817650426214
65,0.030077283320853552,108.27609025702479,-1.0650702630487188
66,0.030527076529488453,108.25030328021803,-1.0764369285623132
67,0.030971551478416633,108.22482104753675,-1.0955960230153097
68,0.0314127673300811,108.19952550729785,-1.1035694929503828
69,0.03167804481709249,108.1843166925412,-1.1635701635780158
70,0.031943322304103884,108.16910781947462,-1.123569988932357
71,0.0321837833241697,108.15532167345503,-1.080358401164601
72,0.03242424434423551,108.14153548165639,-1.1266491233746307
73,0.032709124739740726,108.125202562537,-1.1887566747195353
74,0.03357504228725422,108.07555688419721,-1.2100095539089037
75,0.03406723575814677,108.04733765568128,-1.2134323753986642
76,0.03455038811898456,108.01963658200846,-1.2081332704310108
77,0.0350250528932215,107.99242193914412,-1.2114543915957419
78,0.03549515723259542,107.96546857380841,-1.2061545594269583
79,0.0359593978258333,107.9388512181058,-1.2093808229385066
80,0.03642091235374066,107.9123899772543,-1.2040542286603282
81,0.03687809024686788,107.88617719908316,-1.2071019804044432
82,0.03715143825537584,107.87050441502404,-1.1523295392595703
83,0.0374247862638838,107.85483156894142,-1.1518707961536387
84,0.03772263919179648,107.83775362334346,-1.2133880847592156
85,0.0386299806571875,107.78572906525012,-1.2250135573016956
86,0.03953732212257852,107.73370380781795,-1.2334090169083647
87,0.04006983417001131,107.7031702340796,-1.230903806649515
88,0.04058678371251587,107.67352875667852,-1.2210095576611821
89,0.04108889635292359,107.64473779245998,-1.2202078153643168
90,0.04158208703326472,107.6164581966173,-1.2115464546976622
91,0.04206511253012378,107.58876126918156,-1.2117008647320784
92,0.042541011031452726,107.56147280992087,-1.203806482165921
93,0.04300992977888611,107.53458438556414,-1.2046974199684388
94,0.04347528627015678,107.50790003873688,-1.1974299794860352
95,0.043935559246683124,107.4815070070442,-1.1988211884483042
96,0.044393608492295324,107.45524130876855,-1.1920050434662597
97,0.04466854769096941,107.4394755167724,-1.2437874462616956
98,0.044943486889643496,107.42370965793822,-1.241576971392818
99,0.045167869704104434,107.41084280803518,-1.1934105155495116
100,0.04539225251856537,107.39797591515149,-1.1891987095920544
101,0.045647011745119384,107.38336708086833,-1.237461669138619
102,0.04653159209596678,107.33264154333415,-1.2380105106002244
103,0.04702681275605046,107.30424322286585,-1.2325329932863998
104,0.04751532394562226,107.27622944483724,-1.2202489048253475
105,0.047995348582468976,107.24870212786368,-1.2170407117198891
106,0.04847066692820398,107.2214444993851,-1.2064613754290623
107,0.04893935926976601,107.19456665570135,-1.2047503280232004
108,0.04940477933545799,107.16787627883866,-1.1954552002968724
109,0.04986518258730629,107.14147341862235,-1.1949283783984053
110,0.0501395434235374,107.12573949275877,-1.138127070723016
111,0.050413904259768515,107.11000550538186,-1.1359647940285806
112,0.050712343429983105,107.0928906089537,-1.195723027396645
113,0.05156835695932163,107.04379951160678,-1.2030725639222088
114,0.05205547278576938,107.015863870615,-1.20046179190354
115,0.0525345450304167,106.98838932372009,-1.1903401055614409
116,0.05300563923034108,106.96137212358424,-1.1892099437834172
117,0.0534724367429944,106.93460115250787,-1.1802827297151184
118,0.05393335035832349,106.90816744453737,-1.1801845952208243
119,0.05439142547161905,106.88189634951266,-1.1721095547843405
120,0.054665715583678096,106.86616543629974,-1.223164008299134
121,0.05494000569573714,106.8504344577756,-1.2203162283796243
122,0.05524046710684884,106.83320243854642,-1.155577426147514
123,0.05558931645503022,106.81319518675697,-1.2113491384527921
124,0.055938165803211606,106.79318783048652,-1.2082561294073888
125,0.056167272869248906,106.78004792741741,-1.1589991865662723
126,0.056396379935286206,106.76690798085984,-1.1547974677694683
127,0.056654791597059245,106.75208727968314,-1.204036130850822
128,0.058006878324650554,106.67454006433519,-0.9896218372276957
129,0.05850632020483493,106.64589487278471,-1.001217263377949
130,0.058988000544218995,106.61826821219982,-1.0205119033144763
131,0.059457088109279826,106.59136364256544,-1.0278737889106342
132,0.05991532046299977,106.56508151685514,-1.043327692634702
133,0.06036615914930804,106.53922330414441,-1.0478378554901266
134,0.06063325867463833,106.52390352582135,-1.1063382025566357
135,0.06090035819996861,106.50858369099915,-1.1108333148192937
136,0.061191563061410506,106.49188119930415,-1.053566976172982
137,0.061562262998959484,106.47061905390743,-1.121511294595134
138,0.06193296293650846,106.44935679867426,-1.1254298849461652
139,0.062168607912861606,106.43584083999389,-1.077975400669199
140,0.06240425288921475,106.42232483827019,-1.077340959105584
141,0.0626669607146285,106.40725652894902,-1.1323132728602914
142,0.06368488758785414,106.34887009735453,-1.1456227204892806
143,0.06502426626530038,106.27204454479796,-0.9425965531700818
144,0.06552013446651564,106.24360167556407,-0.9567280788334614
145,0.0659980485739471,106.21618848648399,-0.9784522863030302
146,0.0664629165222516,106.1895234706435,-0.9877736815714994
147,0.06691674398924637,106.16349159213104,-1.005082759980207
148,0.06736285067650664,106.13790243753816,-1.011154033905154
149,0.06762707649678282,106.1227460952129,-1.070415826281111
150,0.06789130231705899,106.10758969934008,-1.0759348156621011
151,0.06817923882282197,106.09107316125966,-1.0200167419813884
152,0.068562310004976,106.06909943705858,-1.0915028225149659
153,0.06894538118713002,106.04712559870404,-1.096448002730952
154,0.06918528493731992,106.03336411251165,-1.0484184146831366
155,0.06942518868750981,106.0196025825569,-1.089376902444669
156,0.06969736948068972,106.00398949969625,-1.1438820104153076
157,0.07114417534058451,105.92099553479918,-0.9230581970334576
158,0.07152031820846898,105.89941839779964,-0.9937558902886906
159,0.07187131786070365,105.87928349140482,-1.0061203446009812
160,0.07223262648049679,105.85855712351166,-0.9406905114850733
161,0.0725699748900519,105.83920514442886,-1.0092594973837377
162,0.07290732329960702,105.81985308283765,-1.0197346378772913
163,0.07315687471958351,105.80553745991861,-0.9731574282459665
164,0.07340642613956001,105.79122179308334,-0.9766750969365003
165,0.07367991200971788,105.77553306146679,-1.0392384679238753
166,0.075140106070497,105.69176697843147,-0.8427899107636698
167,0.07554716630281459,105.66841515804708,-0.9253536730655033
168,0.07592006907666761,105.64702275264321,-0.9431278135898867
169,0.07615214287193918,105.63370926974154,-0.9029324028691241
170,0.07638421666721075,105.62039575131992,-0.9092253906177858
171,0.07664116249975976,105.60565534184171,-0.9718021167934906
172,0.07806764753272129,105.52382026635014,-0.7942796892360204
173,0.07895770024785838,105.47275881319861,-0.8458236452316922
174,0.07940985374427927,105.44681905030833,-0.8635260250505569
175,0.07967284498662558,105.43173134869208,-0.9298844818993797
176,0.0799358362289719,105.41664360106387,-0.894526730071509
177,0.08016924636244527,105.40325287738395,-0.8558451348325115
178,0.08040265649591864,105.38986211947284,-0.8638728928793634
179,0.0806602455854245,105.3750841727773,-0.9286461012120979
180,0.08220054154253774,105.28671613924756,-0.748771193932715
181,0.08258177431487168,105.26484430018854,-0.8393665262978879
182,0.08296300708720562,105.24297237200132,-0.8627963296792612
183,0.0833465865949957,105.22096571544238,-0.8753533485115383
184,0.08373242698620556,105.19882925275891,-0.9693121107156758
185,0.08473081745027124,105.14154905118372,-1.0102852339083268
186,0.08572920791433691,105.08426815864621,-1.0398665202426816
187,0.08662043895650216,105.03313474875037,-1.0607463973106734
188,0.08751166999866741,104.98200075926967,-1.076231843778505
189,0.08802093098806031,104.9527818663494,-1.0769440412523856
190,0.0885152127987744,104.92442221518914,-1.0690622982653728
191,0.08899381140628995,104.89696221808306,-1.0704384194416794
192,0.08946237661474718,104.87007772679125,-1.0632149342736539
193,0.08992059148479963,104.84378693787605,-1.0650796471882056
194,0.09037244678689375,104.81786088333504,-1.058343565888363
195,0.0906401705700248,104.80249965170206,-1.1100273676105736
196,0.09090789435315584,104.78713836378228,-1.1082694524754262
197,0.0911999558836082,104.77038057582531,-1.0451399325506214
198,0.09155276138508792,104.75013735914726,-1.1031340008587056
199,0.09190556688656763,104.72989404553466,-1.1008198085153564
200,0.09216465992932418,104.71502771386164,-1.0448628926883052
201,0.09242375297208073,104.70016133216595,-1.0409430524026222
202,0.09270672709115695,104.68392463201883,-1.096517494387084
203,0.09398760325628625,104.61042881711099,-0.8903963513579332
204,0.09443626376430768,104.58468472339074,-0.8997970344916726
205,0.09487477920647992,104.5595226258024,-0.9173214019484851
206,0.09516767526552647,104.54271612422984,-0.8648639614678681
207,0.09546057132457302,104.52590956800675,-0.9230228845564736
208,0.09569112771381023,104.51268006088846,-0.9758079579146327
209,0.09592168410304745,104.49945051703794,-0.9400198250642684
210,0.0962166255157562,104.4825264476403,-0.8856961543431048
211,0.09658281407360766,104.4615140581312,-0.9591781174447226
212,0.09694900263145913,104.44050157670294,-0.9688444379477654
213,0.0971784426832444,104.42733589420274,-0.9247471191518324
214,0.09740788273502966,104.41417017627361,-0.9678889537312841
215,0.09768530946113033,104.39825084065723,-1.0273681227228086
216,0.09920355768117704,104.31112958144868,-0.8073011993647006
217,0.09957427865811928,104.28985638228569,-0.8874941157209848
218,0.09994499963506152,104.26858309531836,-0.9026363046186714
219,0.10017489361502618,104.25539091666224,-0.8611985730430316
220,0.10040478759499084,104.24219870493728,-0.8660024295285267
221,0.10065896756452472,104.22761282979431,-0.926676056695637
222,0.10214120241301972,104.14255537887136,-0.7359739284186168
223,0.10251925886306562,104.12086056883484,-0.8178978368348301
224,0.10288803684595392,104.09969812429988,-0.8378087240818226
225,0.10314801344831878,104.08477923245418,-0.793976034685151
226,0.10340799005068364,104.06986030126497,-0.8026730704154809
227,0.10368804503868113,104.05378911395016,-0.8729585492140741
228,0.10407255718161534,104.03172348689078,-0.819855266565619
229,0.10445706932454955,104.00965777147952,-0.8309159442639006
230,0.10484242697168548,103.98754344599975,-0.8500715006658941
231,0.10522870507150343,103.96537620738877,-0.7843545127267
232,0.1055761300887264,103.9454385455373,-0.8600803292703799
233,0.10592355510594938,103.92550080885783,-0.8752309144991626
234,0.10617424880221243,103.91111416090997,-0.8305541496064492
235,0.10642494249847549,103.89672747497404,-0.8365545041541808
236,0.10669718135556326,103.88110432260325,-0.9022898451720966
237,0.10754255335275775,103.83259009648006,-0.942421529850237
238,0.10795208791388065,103.80908755062151,-0.9516978187744806
239,0.10836048529597912,103.78565015220649,-0.9512739389680895
240,0.10864330302629933,103.76941954176363,-1.0109283156064048
241,0.10892612075661955,103.75318887399607,-1.0129089144652426
242,0.10922917532755055,103.73579676762623,-0.9500761840271795
243,0.1095719121558886,103.7161272458701,-1.0109299981185642
244,0.10991464898422665,103.69645764015131,-1.012797768775672
245,0.1101661660729263,103.68202306523474,-0.9602250982821966
246,0.11041768316162595,103.66758844693301,-0.9584866059724764
247,0.11069238004880377,103.65182348557485,-1.0155707245691583
248,0.11201184128769409,103.57609836711597,-0.8117643472382217
249,0.11267446244246443,103.53806952718692,-0.8305880710848171
250,0.11313541918709996,103.51161436506466,-0.768897679833097
251,0.11352770189528334,103.48910043743852,-0.8463639744291085
252,0.11389001379792867,103.4683065156854,-0.8614287141794769
253,0.11414714738743141,103.45354897205326,-0.8151134683660509
254,0.11440428097693416,103.43879138926422,-0.8209307930385079
255,0.11468178519461476,103.42286463746746,-0.887584378642052
256,0.11625156112997868,103.33276988240836,-0.6876309132578864
257,0.11659720879809718,103.31293182411854,-0.7676045329959079
258,0.11694285646621567,103.29309369919498,-0.787250747680558
259,0.11716014098919039,103.28062282186266,-0.7508122125905895
260,0.11737742551216511,103.26815191855263,-0.7581436947175233
261,0.1176189358793106,103.2542905579069,-0.8194517523199403
262,0.11912295507702925,103.16796742575755,-0.6425223732204899
263,0.11953955587404076,103.1440564454591,-0.7359961242890372
264,0.11993219755123494,103.12152052614083,-0.7598728904066401
265,0.12016794073035467,103.10798985483592,-0.7213315886732155
266,0.1204036839094744,103.09445915404267,-0.7302942852835327
267,0.12066133627570454,103.079670920731,-0.7966029421920645
268,0.12234076567254612,102.98327738805702,-0.6651785128685015
269,0.1228903230467245,102.95173438235193,-0.7037946350155184
270,0.12340394217611828,102.92225398677215,-0.7255149444464597
271,0.1238894692944436,102.89438587047185,-0.7542244491107534
272,0.1243540760667992,102.86771841168637,-0.7689460237053181
273,0.1246565280844177,102.85035823318339,-0.8432215513880642
274,0.1249589801020362,102.83299799933991,-0.8543514829078047
275,0.12518726376090725,102.81989486653198,-0.8119286000501736
276,0.12541554741977828,102.80679170283663,-0.8579868416298808
277,0.12571128236496623,102.78981688173761,-0.9243945575054074
278,0.12671382400234313,102.73227181136706,-0.9483937483437355
279,0.12771636563972003,102.67472609642604,-0.9655994634878213
280,0.12861888572892866,102.62292103953757,-0.9783354888395495
281,0.1295214058181373,102.57111544179641,-0.9876653693429165
282,0.13003898073983705,102.54140584934255,-0.9855730064574233
283,0.1305366223461276,102.51284028413608,-0.9752167356885947
284,0.13101451900750496,102.48540795554044,-0.9747294420984323
285,0.13147926030926432,102.45873062317592,-0.9657392025888396
286,0.13193121492889048,102.43278713758666,-0.9662792868954262
287,0.13237472876979078,102.40732804142422,-0.9582329523254134
288,0.13263574745888893,102.39234468198222,-1.0086674779633453
289,0.13289676614798707,102.37736127429969,-1.0065326263729908
290,0.1331806978404692,102.36106252359241,-0.9438519051831266
291,0.13355133358109472,102.33978655117669,-1.0046484314419646
292,0.13392196932172024,102.31851048218456,-1.0012453105054815
293,0.13415397842270796,102.30519212280886,-0.9498678818887225
294,0.13438598752369568,102.29187372726807,-0.9453437438893524
295,0.13464301947130775,102.2771188624664,-0.9956823945599084
296,0.13603246579478198,102.19735722974654,-0.7705687645180856
297,0.13651463774856293,102.16967773200658,-0.7811125093712233
298,0.13697626724360107,102.14317736930742,-0.7999721786584411
299,0.13742256019026428,102.11755730214534,-0.8067196314425242
300,0.1378564023666661,102.09265187822079,-0.8220504951431764
301,0.13814389138367214,102.07614803684257,-0.7687150373627374
302,0.13843138040067818,102.0596441495514,-0.774196072746414
303,0.13873424679605456,102.04225744275077,-0.8458818029995568
304,0.13971939493165877,101.98570248955411,-0.8828824055309178
305,0.1406812346087988,101.93048506084277,-0.9091516810860233
306,0.14165373094408032,101.87465527658995,-0.9281684327874551
307,0.14268142989418978,101.81565573809814,-0.9405541920961937
308,0.1439658940114813,101.7419145486918,-0.7378153663654844
309,0.14442007360278164,101.71583984745372,-0.7487730339302756
310,0.14485888716481798,101.69064721267935,-0.767939967236492
311,0.14514719775103732,101.67409501498305,-0.7164625659248459
312,0.14543550833725666,101.65754277405385,-0.7239806653165789
313,0.14573833471693373,101.64015711772585,-0.7980367587858211
314,0.14608137487345366,101.62046267530697,-0.7535233208905235
315,0.1463985132623287,101.60225524087427,-0.7593538134820014
316,0.14672616888166015,101.5834439371224,-0.8363931343623887
317,0.14798579481217217,101.51112595837046,-0.6593144003393233
318,0.14864169239621342,101.47346908840048,-0.6847794415492939
319,0.14923283641709065,101.4395297209583,-0.6117043539425698
