,time,theta,torque
0,0.0,1.9198621771937625,-4.3763489352525236
1,0.0009048343242557869,1.9189573234820405,-3.684660375668747
2,0.0017813988412999668,1.9180807066263317,-3.1597451330897877
3,0.0022701593978471796,1.9175919042170262,-2.8580341578055886
4,0.0027589199543943924,1.917103093770251,-2.654246063337857
5,0.0032847381353614687,1.916577213553738,-2.5403771216816318
6,0.004883730181601773,1.9149779844916546,-2.1131019053349984
7,0.00631467955387103,1.9135467679251694,-1.8224363645599746
8,0.006989468021402033,1.912871837044831,-1.8041225964990424
9,0.007356648720440618,1.9125045747464429,-1.8091800004947485
10,0.007723829419479203,1.9121373094942793,-1.7579460315245814
11,0.008124984794976461,1.9117360584602037,-1.6389480918009136
12,0.008752573752592642,1.9111083134440459,-1.575561795178619
13,0.009380162710208823,1.91048056080252,-1.6274532359541736
14,0.010783241843401393,1.9090770871364946,-1.7089989712783318
15,0.011736330341754187,1.9081237074831368,-1.58483228366357
16,0.012261710092414554,1.9075981595460991,-1.4589950510181882
17,0.01278708984307492,1.9070726066313755,-1.428436793166969
18,0.013313377726180464,1.906546140388419,-1.4929225891153939
19,0.013856061871690398,1.9060032670020333,-1.4625012483092417
20,0.014395005421234765,1.9054641302670743,-1.3380350254607565
21,0.015102945387698897,1.9047559290653813,-1.4376704301827352
22,0.01577734090970363,1.904081276500766,-1.4085429945998897
23,0.016420622292773093,1.9034377425536346,-1.2674141345330374
24,0.017178016366695657,1.90268004251855,-1.388573133492472
25,0.017886090911043505,1.9019716731344667,-1.3662970010018094
26,0.01830893111428527,1.9015486527675258,-1.274454184497255
27,0.018731771317527034,1.9011256295482037,-1.268129344377538
28,0.01916007112296818,1.9006971414683898,-1.346038573611385
29,0.01993206117222713,1.8999248042315724,-1.4581130610886979
30,0.02033069474426212,1.8995259872641954,-1.3898381318495603
31,0.020729328316297112,1.899127167564767,-1.368664512906989
32,0.02113992184593428,1.8987163795037647,-1.4094858488702524
33,0.022027340444191273,1.8978285303472264,-1.3716586160816837
34,0.022745104383415725,1.8971104083165662,-1.3484520517442173
35,0.02340617133469614,1.896449003940535,-1.4392514728555241
36,0.02432063692028607,1.895534059131511,-1.2618778205566532
37,0.024841850547902212,1.8950125663850066,-1.2541715903218391
38,0.025348465171947096,1.8945056763758132,-1.3444511251506785
39,0.02636315041388575,1.8934904270513144,-1.1681782520802961
40,0.027135803704024162,1.892717333808302,-1.3062558430887916
41,0.0278743121405111,1.8919783959345446,-1.29352850926604
42,0.02830488054737858,1.891547573060887,-1.2035827545233115
43,0.02873544895424606,1.891116747385079,-1.2014202281997792
44,0.029167595522774682,1.8906843397917483,-1.2853952080245103
45,0.029984670371737843,1.8898667634268624,-1.1483013858898903
46,0.03032783614569385,1.889523384091471,-1.0982810644389625
47,0.030671001919649856,1.8891800031176529,-1.1043781221040097
48,0.031019920919240926,1.888830863621885,-1.1668515778832012
49,0.03175993450399867,1.8880903764040453,-1.167046152677428
50,0.03242872582749165,1.8874211501176679,-1.0555868107493982
51,0.03386851352271199,1.8859804055088174,-1.0869045226142644
52,0.034301995225468514,1.885546630723801,-1.0135065697277903
53,0.03473547692822504,1.885112853501558,-1.0279477521465459
54,0.035165756446890455,1.8846822782066386,-1.1303062129979515
55,0.035972752662602185,1.8838747200330812,-1.1472942947208178
56,0.036701424325466324,1.8831455328707878,-1.1521741718174667
57,0.037360934376105076,1.88248554963203,-1.28091045800367
58,0.03927604025906094,1.88056903271246,-0.996145306895137
59,0.03997645491738828,1.8798680902409681,-1.143313743627054
60,0.040334109795124314,1.8795101632330766,-1.1017767693342257
61,0.04069176467286035,1.879152234449033,-1.1041364518804289
62,0.04105439304068719,1.8787893265468882,-1.165255792425532
63,0.041779770555934126,1.8780633840413956,-1.1621327009920865
64,0.042443351877820015,1.877399279150199,-1.047677261411131
65,0.043049465189957475,1.8767926823696104,-1.163529596036407
66,0.043655578502094936,1.8761860802845525,-1.1678901247853444
67,0.0442289909626515,1.8756122004871085,-1.059086457209909
68,0.04495885795809584,1.874881732294056,-1.073719338908271
69,0.0453274392416495,1.8745128447122368,-1.1550033334553842
70,0.04569602052520317,1.8741439551695553,-1.1602465622069484
71,0.04607620317580997,1.8737634524965698,-1.086212915003102
72,0.04676704180375413,1.8730720273427932,-1.0949603386879638
73,0.04739714743185897,1.8724413810196305,-1.2240417697804922
74,0.04931147195771442,1.8705253789008258,-0.9484839566303052
75,0.04995437348241028,1.869881903962982,-1.0862338660290964
76,0.05032229907303049,1.869513647763125,-1.045882600271267
77,0.0506902246636507,1.869145389775009,-1.0503868778279684
78,0.051065981517292754,1.8687692915927572,-1.1166513175105992
79,0.051744896778678044,1.8680897545532533,-1.116628284486285
80,0.05236948535969871,1.8674645882478504,-1.01082113109244
81,0.05302388958473052,1.8668095732157073,-1.1379666194427163
82,0.05367829380976233,1.866154552153247,-1.1416207140975847
83,0.05428879031126224,1.8655434746989217,-1.0252755391085342
84,0.054822619238149545,1.8650091337885155,-1.0351216264884933
85,0.05533203469497528,1.864499226283942,-1.1467199540657746
86,0.05636688051961168,1.8634633697930791,-0.9887040046592049
87,0.0571285528150907,1.8627009447932625,-1.1418307422342384
88,0.057890225110569724,1.861938511645213,-1.1439752797897824
89,0.058271814796165784,1.861556537621764,-1.0677403514596413
90,0.058653404481761845,1.8611745616404092,-1.0694858313637676
91,0.05904168427468248,1.8607858867655818,-1.1513420086244979
92,0.05990619934203178,1.8599204840979942,-1.2988622146055409
93,0.060297745394063,1.8595285322139548,-1.235687162049795
94,0.060689291446094216,1.859136578005261,-1.220577022506323
95,0.06108505041984456,1.858740404128526,-1.265059444107291
96,0.06180014629685122,1.8580245523287646,-1.2338702458645556
97,0.06246148296573518,1.8573625096197712,-1.1010321502844342
98,0.06306085751439634,1.8567624898488992,-1.1989782750564795
99,0.06366023206305751,1.856162464787112,-1.1885509424981828
100,0.06423133384349991,1.855590738259491,-1.0700268300308815
101,0.0649510418352722,1.8548702367483032,-1.0733327980465361
102,0.0653155450225334,1.8545053290616424,-1.1482271701168094
103,0.06568004820979459,1.8541404194810356,-1.1484895270709685
104,0.06605677817486043,1.853763267502169,-1.070840114341833
105,0.06674128976432221,1.8530779843100766,-1.072746148978493
106,0.06736500813373471,1.852453557389234,-1.1950286537855466
107,0.06813563165906443,1.8516820506919596,-1.0596423445316894
108,0.06882182286449359,1.8509950664262311,-1.062315920654073
109,0.06944647856700671,1.8503696833387686,-1.185676922617091
110,0.0698578510642962,1.8499578287598648,-1.1109464306448498
111,0.0702692235615857,1.8495459718403415,-1.0357680339250543
112,0.07088287633907697,1.8489315923835414,-1.0330149053875557
113,0.0714450118388629,1.8483687869282512,-1.1275516547769
114,0.07228145426136542,1.8475313396313187,-1.0022558212393726
115,0.07294201883547816,1.8468699752225388,-1.0094449336859566
116,0.07333152452475504,1.84647999534337,-1.0914824358994533
117,0.07372103021403192,1.8460900134034635,-1.0950720245032715
118,0.07411681056002768,1.8456937470199026,-1.0164817020587504
119,0.07483310571809508,1.844976567197823,-1.0235596071812563
120,0.0754788811934845,1.844329988512702,-1.1548313319148633
121,0.07607292130639295,1.8437352044073665,-1.0504292522808196
122,0.0766669614193014,1.8431404156678306,-1.0501508602154224
123,0.07722211449838569,1.8425845587783611,-1.1596963156147175
124,0.07799115283287579,1.8418145381330566,-1.1467536484584961
125,0.07837578525715667,1.8414294112062042,-1.064506672860557
126,0.07876041768143756,1.8410442823108677,-1.061301222390562
127,0.07915090147581626,1.8406532924837264,-1.138497127054652
128,0.07996303637263141,1.8398400981193404,-1.2683817188107687
129,0.08077517126944657,1.8390268937541256,-1.2491932676577726
130,0.08120878328186562,1.838592706636842,-1.285688346356957
131,0.08164239529428467,1.838158516564463,-1.2582900692921124
132,0.08207982856853914,1.8377204972026977,-1.1620806582606364
133,0.08272281130008571,1.8370766480406364,-1.1459375070761564
134,0.08331462485636937,1.8364840318324747,-1.2364456057399154
135,0.0843075042878861,1.8354897942393538,-1.0479651076254772
136,0.08483573130193493,1.8349608393227728,-1.044652683815222
137,0.08534011638166988,1.834455755798572,-1.1426037356022496
138,0.08623782743571623,1.8335567930154422,-0.9865892405684883
139,0.08687617977841902,1.8329175444670838,-0.9914225590772422
140,0.08746308678022661,1.8323298090194622,-1.112103894612824
141,0.08958669615821346,1.8302031654706226,-0.8128329370633084
142,0.08987919316538992,1.8299102469883464,-0.7675163921668243
143,0.09017169017256638,1.8296173276569667,-0.7303546026910698
144,0.09079644041680172,1.828991672668108,-0.7663367151335285
145,0.0913653839304194,1.8284219018763326,-0.8920025061348206
146,0.0922610302783835,1.8275249460154568,-0.7876824678001539
147,0.09292895771413946,1.8268560367255229,-0.8162103025783424
148,0.09331459183679025,1.8264698336404237,-0.9108622126284884
149,0.09370022595944104,1.8260836288494533,-0.925897695599507
150,0.09408819281182686,1.8256950861320802,-0.8571901665982752
151,0.09472936672666986,1.8250529569556793,-0.8762457036183915
152,0.09531595225811124,1.824465493496842,-1.0111611786770813
153,0.09630081048552175,1.8234791518400344,-0.8620008493809357
154,0.09680337834778716,1.8229758228513506,-0.8750163198556569
155,0.09728400452667507,1.8224944661549571,-0.986720367977765
156,0.099243185194913,1.8205322802576693,-0.7370886837586811
157,0.0999452725929346,1.8198291071728079,-0.898723313653524
158,0.10033656138371623,1.81943721103038,-0.8579308381530935
159,0.10072785017449785,1.819045313225878,-0.8652655728555605
160,0.10111298268623879,1.8186595796441314,-0.9384652451511872
161,0.10178737667418061,1.8179841288790657,-0.947993063648493
162,0.10239990950328438,1.8173706315331375,-0.844488398311938
163,0.1039225928354077,1.8158455332619905,-0.8933046821941
164,0.10429942312207484,1.8154681022263066,-0.8264213417419812
165,0.10467625340874198,1.81509066969648,-0.8367068945901526
166,0.10505546989922396,1.814710845623705,-0.9275036859081252
167,0.10580293320994086,1.8139621797308592,-0.9442190753675775
168,0.1064758426512341,1.8132881820204503,-0.8201932359781772
169,0.10706688566740333,1.8126961791066942,-0.9432208661100825
170,0.10740128251852378,1.812361237397382,-1.014399834306553
171,0.10773567936964423,1.8120262942848007,-1.0164574986902826
172,0.10808325131077884,1.8116781530718042,-0.9446783317624783
173,0.10840512250795248,1.8113557534237217,-0.8827193970838196
174,0.10872699370512612,1.8110333526233202,-0.8867326427385662
175,0.10906123518255355,1.8106985599627272,-0.9624420986283008
176,0.10987072295765878,1.8098877315853306,-1.1173067065974658
177,0.11031760896448178,1.8094401017527897,-1.0482787387274382
178,0.11076449497130479,1.8089924693460555,-1.0333583821989272
179,0.11119794097654646,1.808558296953059,-1.089214049873527
180,0.11193255755065498,1.807822443478124,-1.0728661738464884
181,0.11229998552855985,1.807454394132432,-0.9979101385591649
182,0.11266741350646473,1.8070863431154531,-0.9927836581259928
183,0.11303988063021973,1.806713242708984,-1.061427882547356
184,0.1138308140495533,1.805920958411475,-1.0470312759728355
185,0.11426756460047101,1.8054834583944368,-0.9538282793216406
186,0.11470431515138872,1.8050459561092442,-0.9516384076010534
187,0.11513390327488343,1.8046156263723923,-1.038486079077819
188,0.11592340279544805,1.8038247576664177,-1.0293464061484106
189,0.11630878640892536,1.803438702774026,-0.9471348654326575
190,0.11669417002240268,1.8030526461288223,-0.9449846329483611
191,0.11708214416716287,1.8026639926608425,-1.0242318185132748
192,0.11783601756061106,1.8019087937558906,-1.017684758479224
193,0.11825781098639195,1.8014862555438476,-0.9285735534373082
194,0.11867960441217283,1.801063715270166,-0.9276974908785838
195,0.1190966718081063,1.8006459073696792,-1.0139722147676766
196,0.11986892945571569,1.7998722727284422,-1.1452844599197614
197,0.12029568354743266,1.7994447541877825,-1.1353156605812722
198,0.12072243763914962,1.7990172331300198,-1.1105625751760742
199,0.12114698357155189,1.7985919217468576,-1.151515441264823
200,0.12190361973379447,1.7978339150678067,-1.113566474940251
201,0.12227991826277107,1.7974569319853608,-1.0316609186820291
202,0.12265621679174767,1.7970799471042291,-1.021104639457997
203,0.12303929905033978,1.7966961642887396,-1.08527468906398
204,0.12383911819247355,1.7958948761240654,-1.0601448848064583
205,0.12428013491538117,1.7954530457700004,-0.9622533617440854
206,0.1247211516382888,1.7950112130952447,-0.9565750373765962
207,0.12515411457777326,1.794577446860459,-1.0404956696270744
208,0.12587946085985913,1.793850749393138,-1.0275183260469023
209,0.12629102365192338,1.7934384169390372,-0.9376922152549999
210,0.12670258644398763,1.7930260825122548,-0.9339915162103583
211,0.12711142668627173,1.7926164737938075,-1.015784987869242
212,0.12782138813709865,1.7919051728497246,-1.0069665019918916
213,0.1284700441688107,1.7912552875363719,-0.8707861383941456
214,0.12921181583648508,1.7905121045445251,-0.7359921712111293
215,0.12968337611379074,1.7900396442744202,-0.7449965081876407
216,0.13011043416423315,1.7896117693577163,-0.6839869223340423
217,0.13068418150877256,1.7890369220524183,-0.7165963431758258
218,0.13120301099349055,1.7885170953150025,-0.8240771831983347
219,0.13186286277562578,1.787855971168281,-0.8437131712852636
220,0.13245983880048162,1.7872578400665224,-0.7435199218594626
221,0.13304251515161528,1.7866740329561082,-0.8628885170294143
222,0.13337120959313573,1.7863446990770078,-0.9328460207958753
223,0.13369990403465618,1.7860153639546235,-0.9361692917031138
224,0.1340403253896175,1.785674277748311,-0.8667120130958482
225,0.13466067192745237,1.7850527164894012,-0.8700100056793882
226,0.13522940511919376,1.7844828659837864,-0.988019650823902
227,0.13583137199159842,1.783879712242172,-0.982635230737392
228,0.13639494637535937,1.7833150227274557,-0.8635096111318832
229,0.13711710325890816,1.7825914317902078,-0.9951267090563043
230,0.13783926014245695,1.7818678345912533,-0.9853708764591139
231,0.1384962076808919,1.7812095713196132,-0.846744390680328
232,0.13923648706118313,1.7804678038782369,-0.7115979070841745
233,0.13970695562783722,1.7799963869276125,-0.7203677426200322
234,0.14013244980402295,1.7795700332944895,-0.6591966090901261
235,0.14069679232789323,1.7790045485027386,-0.6895740312127893
236,0.14120797803254906,1.7784923257189784,-0.7957994299380557
237,0.14185252848734037,1.7778464638777098,-0.8155433269403716
238,0.14243631283481867,1.7772614881301851,-0.717807024752107
239,0.1430254971453516,1.776671098148843,-0.8388989482298362
240,0.1433566037790453,1.7763393124185873,-0.9092787872098947
241,0.143687710412739,1.7760075254612666,-0.9124984773585751
242,0.14402980238770305,1.775664729300271,-0.8424427588001349
243,0.14467788049178718,1.7750153138439477,-0.8459351838966004
244,0.14526633816615467,1.7744256380301295,-0.9679302061368914
245,0.14588267146703807,1.7738080244959176,-0.9617103507498789
246,0.14645653781129356,1.7732329621106462,-0.839799698735419
247,0.1471232245622605,1.7725648814172972,-0.9612562883325175
248,0.14778991131322747,1.771896795565391,-0.9545014202010625
249,0.14840243067216644,1.7712829862029704,-0.8251480494656138
250,0.1494386612788219,1.7702445647143832,-0.6403101572662392
251,0.15047489188547739,1.769206134392104,-0.5037548672847876
252,0.15105238104581495,1.7686274160605158,-0.6345176961824847
253,0.1516298702061525,1.768048695162445,-0.660154163556168
254,0.152161850844578,1.767515577375352,-0.5855487147478396
255,0.1527743632653368,1.7669017530142772,-0.6176992171880459
256,0.15332940310566556,1.7663455217730275,-0.756549807501905
257,0.15448843495797884,1.7651839930801523,-0.6054428575038183
258,0.1550261136578038,1.764645152440385,-0.7275621751341901
259,0.1553315662476347,1.7643390386216438,-0.8004717102844869
260,0.15563701883746558,1.7640329238773702,-0.8093508255551314
261,0.15595517953583646,1.763714072484045,-0.7481842474827053
262,0.1563252720477194,1.763343175350989,-0.6818417252962631
263,0.15669536455960234,1.7629722770346605,-0.6922299997102559
264,0.15706566883253426,1.7626011652955333,-0.782563612155491
265,0.15770963058518753,1.76195579611674,-0.7998504760170622
266,0.1582972573564764,1.7613668814593468,-0.6903484014803025
267,0.15938490589807436,1.7602768414918744,-0.5186906093054168
268,0.16047255443967232,1.7591867934557226,-0.3940585464770657
269,0.16179997078128927,1.75785643991301,-0.4928201711391864
270,0.1622390463032404,1.7574163914182401,-0.44247413265370156
271,0.16267812182519154,1.7569763417777726,-0.4742348512831245
272,0.1630992109611737,1.7565543172889169,-0.5901757138325612
273,0.16369688054848477,1.7559553177746403,-0.627235092964823
274,0.16424408896636442,1.755406889226205,-0.542040402850082
275,0.16487967288040056,1.7547698854911384,-0.5754531252174642
276,0.1654525940305937,1.7541956819501443,-0.723488467296518
277,0.1663768926684753,1.7532693084430713,-0.5991033610429402
278,0.1670795980352811,1.7525650211350092,-0.7609381440367337
279,0.167735474861315,1.7519076638658784,-0.778193253105803
280,0.1683311927306373,1.7513105977605001,-0.6667983220137431
281,0.16941896701582318,1.7502203542022106,-0.49460833954310957
282,0.16974813638901567,1.749890436039963,-0.4599165437908719
283,0.17004483764772746,1.7495930594667914,-0.4182223612731895
284,0.17033668894543763,1.7493005434081699,-0.3930111441078814
285,0.17090781001097738,1.7487281201869909,-0.42852179193011436
286,0.1714284032927223,1.7482063383306856,-0.560835719542839
287,0.17239605450411297,1.7472364728973808,-0.4685067879664044
288,0.17310552317816033,1.7465253770440266,-0.646487055687495
289,0.17374495021877345,1.7458844803435947,-0.6758220265661312
290,0.17432430745475466,1.7453037885329583,-0.5777010863452966
291,0.17483406112676017,1.7447928585570163,-0.5984183957297088
292,0.17531256608858833,1.744313247604186,-0.7189860324287081
293,0.176307925360004,1.7433155814410592,-0.5825076950579613
294,0.1768007867806797,1.7428215749920732,-0.601621444787257
295,0.1772663113665016,1.7423549671865102,-0.7184623933532801
296,0.17937270861945437,1.7402436469667755,-0.47811246958245535
297,0.18147910587240715,1.7381323025363378,-0.624445612913527
298,0.18206390746297582,1.7375461223364357,-0.5577619685428238
299,0.1826487090535445,1.736959939718579,-0.5858926685145315
300,0.18317968557011233,1.7364277070950789,-0.7148225347687901
301,0.18381444246625728,1.735791445297744,-0.7326236474034244
302,0.18439177158656178,1.7352127442720477,-0.6257520458964434
303,0.18509609922829448,1.7345067392751026,-0.7786291537659835
304,0.1857490825173916,1.733852196952449,-0.7876040894645968
305,0.18634267483227204,1.7332571838426298,-0.670438974908478
306,0.18683601739666164,1.7327626581760651,-0.6791052600573412
307,0.18730296848299405,1.7322945853866663,-0.7865132512289813
308,0.1878533505472393,1.731742878504677,-0.7933530834999456
309,0.1883683843748241,1.7312266022935197,-0.6898016225120779
310,0.18943583933752497,1.730156565474852,-0.5066100705495726
311,0.18976034210266185,1.7298312762659587,-0.45807548824193023
312,0.19008484486779872,1.7295059864299787,-0.41918354475002917
313,0.1906709939956623,1.7289184141603593,-0.4648572094788518
314,0.1912010181875399,1.728387101327488,-0.5881993520860289
315,0.19181116360878014,1.727775469881734,-0.6175851735744788
316,0.1923615230304387,1.7272237675861382,-0.5337457688846888
317,0.19276399886106266,1.7268203083984532,-0.5492740100022157
318,0.19315649726968404,1.726426849923262,-0.647220824268455
319,0.19376023080855498,1.7258216371695096,-0.6701067738300825
320,0.1943121186589091,1.7252683944957128,-0.571930789863351
