,time,theta,torque
0,0.0,110.0,-4.3763489352525236
1,0.0005483790764707432,109.96857977585637,-3.924931460409646
2,0.0010967581529414865,109.93715876710247,-3.551042898425895
3,0.0016776861225540015,109.90387199351625,-3.2866644060797645
4,0.002525255742085927,109.85530553568977,-2.8817699520834834
5,0.0029641529997941774,109.83015579446398,-2.700699136216148
6,0.0034030502575024277,109.80500570157452,-2.5335027308323808
7,0.0038845677573881667,109.7774129638327,-2.3775719700685314
8,0.0044020394726272585,109.74775949846895,-2.225279180437755
9,0.00495403755182216,109.71612706724547,-2.0894368968547794
10,0.005527974864751943,109.68323693766632,-1.9634115962957521
11,0.006128166889304546,109.64884177425762,-1.857854380985998
12,0.00673636873593821,109.61398711556929,-1.8344875478282
13,0.007160923241594326,109.58965659295237,-1.7141860940172668
14,0.007585477747250441,109.56532585311082,-1.714954903661261
15,0.008003010812500475,109.54139729521185,-1.6679330673864485
16,0.00845302230637956,109.51560719173737,-1.6168494931879258
17,0.008928700992741224,109.48834585488177,-1.5749284757232003
18,0.009416909270652456,109.46036618196108,-1.5323053128212718
19,0.009924355971257355,109.43128366416565,-1.4997781977523608
20,0.010436075781439525,109.40195597230785,-1.4657672647759006
21,0.010954904477551658,109.37222057862432,-1.4411210343979786
22,0.011472628857652217,109.3425482023325,-1.4147579769256218
23,0.011989819656223916,109.312906138483,-1.3980878807078725
24,0.01250389316242769,109.28344247473856,-1.3770001254610804
25,0.013012598694417109,109.25428621677057,-1.3653168636932416
26,0.013517569301472193,109.22534377595244,-1.3488729406498778
27,0.014016987775792855,109.19671931502879,-1.3417622313856672
28,0.014520438434178336,109.1678635058413,-1.3277343406264928
29,0.015016619989125853,109.13942409800354,-1.3226314768501297
30,0.015508853849840756,109.11121072879534,-1.3111875148733636
31,0.015995253189312927,109.0833315538683,-1.3083724625666822
32,0.016478975837979182,109.05560558086388,-1.2982302439313844
33,0.016956664400095696,109.02822525594536,-1.2962768135426026
34,0.017432407580272265,109.00095622708953,-1.2877666206453717
35,0.01790415160835341,108.97391621890455,-1.287347219787855
36,0.018374809037379116,108.94693828966435,-1.2799898431606056
37,0.01865858989232386,108.9306719667757,-1.3305901522715766
38,0.018942370747268605,108.91440556760486,-1.3276036366147732
39,0.019173852865058152,108.90113689041365,-1.278407862928709
40,0.0194053349828477,108.8878681641673,-1.273677907853203
41,0.019668278653021082,108.87279597905773,-1.3220791592624594
42,0.020056824221998365,108.85052405397073,-1.2541807145866715
43,0.020445369790975648,108.82825199432392,-1.2494992066972348
44,0.020843330371439737,108.80544011068032,-1.2518696610563234
45,0.02110825430315821,108.79025407045026,-1.1997628492701966
46,0.021373178234876684,108.7750679695128,-1.1994955817071817
47,0.021664225471122744,108.75838434548898,-1.2592062716437513
48,0.022658595882443195,108.70138374705732,-1.26880533442162
49,0.023978294237948207,108.62573294309144,-1.0713906282588825
50,0.024433060984925918,108.59966343107902,-1.084507672036351
51,0.02488053696318182,108.57401170308053,-1.1040253055470952
52,0.025146841301230603,108.55874563059295,-1.0591061160686062
53,0.025413145639279384,108.54347950319952,-1.066609780936259
54,0.02570322809837912,108.5268502113904,-1.1359453187662172
55,0.026718692332214446,108.46863708607647,-1.1751549104892376
56,0.028084034802358732,108.39036531014322,-0.9943038398567534
57,0.028603791877965024,108.36056853560675,-1.0155496145878113
58,0.029102480790738867,108.33197937342457,-1.0443097736799412
59,0.029586122112966035,108.30425268826592,-1.059108229699046
60,0.030057365744769513,108.27723657690704,-1.081004794273459
61,0.030508298202017052,108.25138472950381,-1.0905774200754736
62,0.030953234122766595,108.2258765042073,-1.107919023372794
63,0.03139485251098906,108.20055831642664,-1.114969269893685
64,0.031660451422153166,108.18533133199054,-1.1740476250957221
65,0.031926050333317274,108.17010428803864,-1.1797876185107732
66,0.03221726039669281,108.15340886322663,-1.1251548117307122
67,0.03257564778174504,108.13286198559042,-1.1906805359577939
68,0.03293403516679728,108.1123149984928,-1.195890452391824
69,0.03316650254035185,108.098987170772,-1.1506701169673397
70,0.033398969913906416,108.08565929819547,-1.1508886145859079
71,0.03366007764801957,108.07068935633272,-1.2059025795627951
72,0.034550015887679364,108.01966659597542,-1.220976357834468
73,0.0350495176336021,107.99102840311211,-1.2225296128640346
74,0.03554013370457555,107.96289944499482,-1.215818117786559
75,0.03602118151039641,107.93531886996722,-1.2180234357703636
76,0.036503507766017615,107.90766479357286,-1.2113891787291855
77,0.03697680491055991,107.88052820331481,-1.213096690855467
78,0.03744575420396132,107.85364070639682,-1.2071369272739982
79,0.0379088989125741,107.82708583239605,-1.2093736366940078
80,0.03836957351017318,107.80067240072735,-1.2041745011603333
81,0.03864497852630812,107.7848815765811,-1.2552319402714571
82,0.03892038354244306,107.7690906846751,-1.2535299344600477
83,0.0392223537931481,107.75177654480169,-1.1901562804306571
84,0.03958625122009127,107.73091156726956,-1.2491002891156695
85,0.03995014864703444,107.71004647225753,-1.2466581792820983
86,0.04032931047894763,107.68830602413895,-1.2377080582082596
87,0.04072067163750759,107.665865955547,-1.3039748473800874
88,0.04167495975125002,107.61114790900368,-1.2910986205122066
89,0.042513768145422993,107.56305069804128,-1.281703256379961
90,0.04295454689457603,107.53777622419163,-1.2726399166760995
91,0.04339532564372906,107.51250157482609,-1.2581934951850209
92,0.04366667467253409,107.49694209174642,-1.3033788881393633
93,0.043938023701339125,107.48138254134254,-1.2515596413352033
94,0.04418600536122056,107.46716285295103,-1.1989558515842194
95,0.044433987021101996,107.45294311144774,-1.2340784579350186
96,0.04470740512463481,107.43726473327064,-1.280607952120372
97,0.045074481335510314,107.4162156934623,-1.2127062723063327
98,0.04544155754638582,107.39516653700716,-1.205006952869877
99,0.045680002231835784,107.38149340306111,-1.2489009583945723
100,0.04591844691728575,107.36782021907734,-1.2057898160352958
101,0.04622784265710469,107.35007840136687,-1.1431254459500562
102,0.04658761308025904,107.32944782579058,-1.2032162252945673
103,0.0469473835034134,107.30881713941858,-1.2032048064268215
104,0.047180651816302314,107.29544053436659,-1.1551014220075804
105,0.04741392012919123,107.28206388390043,-1.1915668097580203
106,0.047678977770433596,107.2668642348068,-1.2408276801352642
107,0.048578087736207774,107.21530459696524,-1.237299541492117
108,0.04955766608965042,107.1591296971323,-1.2344029682529978
109,0.05044436431246547,107.10828039681802,-1.233024359004641
110,0.05101725072334214,107.07542683605982,-1.2243982587352809
111,0.051568443827047096,107.04381706079256,-1.2107090272597156
112,0.05209697018153396,107.01350693047056,-1.2060083083373982
113,0.05259723825106938,106.98481714587778,-1.1941034498478929
114,0.05308543557668431,106.95681939881567,-1.1925503641695918
115,0.053566112473052374,106.92925274487341,-1.1829543845940915
116,0.05403813354568406,106.90218230967531,-1.1826741835434897
117,0.05451177382823838,106.87501882398662,-1.1737102450491972
118,0.05497729303816347,106.84832090236578,-1.1735492302413042
119,0.05543868487286207,106.82185951028927,-1.1659938030034138
120,0.055894455222992065,106.79572034326925,-1.1668314503785686
121,0.05634775376412029,106.76972276701355,-1.1604152670664565
122,0.05665853415784868,106.75189879309475,-1.2172869529506019
123,0.056969314551577076,106.73407473575566,-1.2140876358497321
124,0.05718189889921657,106.72188242684594,-1.1681272308555837
125,0.057394483246856066,106.70969008000371,-1.1990291683994738
126,0.057644270034563586,106.69536401300653,-1.2427004511334752
127,0.05848381809538471,106.64721286566339,-1.2339505434994689
128,0.05903140975715555,106.61580615541347,-1.2223519330141437
129,0.05956254885556054,106.58534282121511,-1.2060776970842
130,0.06007566266092249,106.55591309317317,-1.1990320188915369
131,0.06056375926301079,106.52791802271132,-1.1854187367513063
132,0.06104184804560495,106.50049676186745,-1.181838170260835
133,0.06151406554665912,106.47341206572123,-1.170944614166171
134,0.06197890017566303,106.44675064291532,-1.1690242918055123
135,0.062439939162161784,106.42030674843507,-1.1595984508335202
136,0.062893970235708,106.3942646363915,-1.157965297055026
137,0.0631643718995099,106.37875497685906,-1.1020270081394241
138,0.06343477356331179,106.36324525954355,-1.0996472358880203
139,0.06372886254321845,106.34637681794202,-1.158666230470156
140,0.06474147831167999,106.28829437311788,-1.1627860713956368
141,0.06517100413136726,106.2636570319375,-1.0890445581408843
142,0.06554292727096198,106.24232362752262,-1.152523256528947
143,0.0659148504105567,106.22099010998339,-1.1521884411896672
144,0.0661520880624776,106.20738209470906,-1.1027426848454804
145,0.06638932571439851,106.1937740349891,-1.099871773143499
146,0.06665361236034827,106.17861438035682,-1.151440207788903
147,0.06750957185715595,106.12951559884361,-1.1588263416165192
148,0.06800435981362236,106.10113374464109,-1.1562253944973895
149,0.06849635658535012,106.07291179791227,-1.1455590339031563
150,0.06897480132437452,106.04546703433485,-1.143788127083654
151,0.06944586071627203,106.01844573039915,-1.1348763305425358
152,0.06990827138771846,105.99192036711338,-1.1345976953976953
153,0.07036602688128518,105.96566186970934,-1.127034255249432
154,0.07063865539703373,105.95002284049771,-1.1768845681154922
155,0.07091128391278229,105.93438374930166,-1.1741416782358733
156,0.071208735534006,105.9173206324153,-1.1100780143267526
157,0.0715617533502717,105.89706990520659,-1.1666163132658134
158,0.07191477116653741,105.87681907515743,-1.163387004136758
159,0.07217656101668626,105.86180146117896,-1.1072240385699257
160,0.07243835086683512,105.84678379255566,-1.1451921150148263
161,0.07271807131722555,105.83073746723971,-1.1943184320625053
162,0.07355158592959253,105.7829220352495,-1.1883606617344702
163,0.07401968158610342,105.7560689888024,-1.1800810736981915
164,0.07448777724261431,105.7292157593618,-1.16484182315838
165,0.07494905324262689,105.70275357585271,-1.1584829855425938
166,0.07540692569523832,105.67648647204139,-1.1461842608291783
167,0.07585941305149449,105.65052813131967,-1.14250262841437
168,0.07612899826103721,105.63506246003442,-1.0853003555921523
169,0.07639858347057993,105.61959673237193,-1.0815089723091496
170,0.07669161360972575,105.60278593794423,-1.137735994599072
171,0.0770762216874824,105.58072132093471,-1.0702880293721109
172,0.07746082976523906,105.55865659071549,-1.066900357124549
173,0.07785136408271155,105.53625176018875,-1.0717155869222414
174,0.07824759625246414,105.51351992664713,-0.9937787505158905
175,0.07860223432086554,105.49317424910197,-1.0587384047050548
176,0.07895687238926694,105.4728284766609,-1.0638543415871333
177,0.0791839958422145,105.45979823429774,-1.0186600320420873
178,0.07941111929516206,105.44676795385996,-1.0579481049326223
179,0.0796768457720573,105.43152293317627,-1.1114751576785267
180,0.08058225033825632,105.37957846553508,-1.1171153883449585
181,0.08155242353787201,105.32391742226837,-1.1218933224778826
182,0.08270757800029088,105.25764264213662,-1.118271731270654
183,0.0831842470801345,105.2302943685469,-1.035545482208583
184,0.08366091615997812,105.20294592353807,-1.1174185970815882
185,0.08407041513086973,105.17945116169466,-1.0505293194519594
186,0.08445124017684469,105.15760144301714,-1.0469607876843106
187,0.08483795148812083,105.13541389059547,-1.0509824720199201
188,0.08523069401171876,105.11288018295565,-0.9737022876608936
189,0.08558254770367744,105.09269238954438,-1.0393454797798285
190,0.08593440139563613,105.07250450451653,-1.0444314208153986
191,0.0861598597562594,105.05956860324709,-0.999947912022898
192,0.08638531811688266,105.04663266547101,-0.99960251572731
193,0.0866371350320346,105.03218433149657,-1.0524040538433663
194,0.08751833425056323,104.981623974433,-1.070103299167471
195,0.08801713659208626,104.95300405497788,-1.0718826275894628
196,0.08850877279325882,104.92479512356319,-1.0644806566933194
197,0.08898415728523024,104.89751850290398,-1.0659781439041458
198,0.0894497273078336,104.87080485097754,-1.0594290784417395
199,0.0899051035913698,104.84467594103967,-1.0616202689177279
200,0.0903544831728343,104.81889096069202,-1.0560013537887505
201,0.09065946709197834,104.80139118244323,-1.1134888853898717
202,0.09096445101112237,104.7838913309512,-1.1112057811565865
203,0.09117156197437354,104.77200734742308,-1.0661867326465444
204,0.09137867293762471,104.76012333134511,-1.0619086205378563
205,0.09161514202446107,104.74655470796608,-1.1072538890014645
206,0.09268573206202028,104.68512359470522,-1.1022726017609643
207,0.09406683223299811,104.60587396337893,-0.8826882685994432
208,0.09455120253784409,104.57807976380246,-0.8932305653860704
209,0.09501736389486903,104.55133028911737,-0.9122697716358369
210,0.09547055992541317,104.52532465929669,-0.9195313701088368
211,0.09591288739192354,104.49994256602875,-0.9349118715627047
212,0.09634757828473785,104.47499855433738,-0.9401674280803713
213,0.09664160200002128,104.45812642199205,-1.0042064566760749
214,0.09693562571530472,104.44125422774238,-1.0091464943985053
215,0.097163119613765,104.42819972354124,-0.963847583749905
216,0.09739061351222529,104.41514518352999,-0.963872661413549
217,0.09764394352729264,104.40060801815153,-1.0184811643141614
218,0.09853497429166813,104.3494764797401,-1.0354128204726096
219,0.09903021720131096,104.32105686390476,-1.0373892844320265
220,0.09951073756921305,104.29348193133629,-1.0307001283526203
221,0.09997718290377441,104.26671454060644,-1.0331274762521452
222,0.1004345828882742,104.24046607044095,-1.0268977581283343
223,0.10088117675133919,104.21483757564465,-1.028511903259777
224,0.10114429308417346,104.19973816016756,-0.9746223233594807
225,0.10140740941700772,104.18463869638674,-0.9734665620267039
226,0.10169258638640186,104.16827318370113,-1.0331357775855365
227,0.10270866744308411,104.10996264634602,-1.0418922284143677
228,0.10372474849976637,104.05165137643418,-1.050617393873026
229,0.1050723278403249,103.97431482408466,-0.8416403357019943
230,0.10550945369019919,103.9492282628783,-0.8522302131993033
231,0.10593754396133845,103.92466013723502,-0.8709839441366432
232,0.10635907312806199,103.90046844115274,-0.8790479043196249
233,0.10664604657826876,103.88399887741136,-0.9442254704602145
234,0.10693302002847553,103.86752925809057,-0.9513851287358059
235,0.10723797328115058,103.85002770335034,-0.8928053545158051
236,0.10756915128135987,103.83102101683475,-0.9564952971965782
237,0.10790032928156916,103.81201425563741,-0.9632546525120048
238,0.10824377433199141,103.79230339212452,-0.8970587202002375
239,0.10857204928181133,103.7734630927208,-0.9587464589641552
240,0.10890032423163125,103.75462271980868,-0.9648041644680135
241,0.10924089571802649,103.73507654527866,-0.8982906175063644
242,0.10956765438195325,103.71632304853978,-0.9603188494149136
243,0.10989441304588,103.69756947889834,-0.9662753388936537
244,0.11023418804958235,103.67806878830086,-0.8995238926393792
245,0.1105926485806101,103.65749559786818,-0.9662015582705451
246,0.11095110911163786,103.63692231930501,-0.9718200787214123
247,0.11117724160375018,103.62394375449476,-0.926546266029587
248,0.11140337409586251,103.61096515543346,-0.9664876186241317
249,0.11167067495140771,103.5956237029838,-1.021222383736547
250,0.11323602736134084,103.50578096204661,-0.7886850989317012
251,0.11357994484724042,103.48604177238958,-0.8616245553620544
252,0.11392386233314,103.46630250957236,-0.8748366530977458
253,0.114172931886726,103.45200702996144,-0.8295878718879788
254,0.114422001440312,103.43771151304499,-0.8341933988693494
255,0.11469187553873814,103.42222186268143,-0.8973312491177776
256,0.11553369245836716,103.37390477865773,-0.9341436571496488
257,0.11594298021860899,103.35041305516891,-0.94210302815365
258,0.11635086013492912,103.32700202529914,-0.9413537944423273
259,0.11675532844747105,103.30378670034136,-1.0227444638877197
260,0.11772127134744842,103.24834387329071,-1.0278733458320204
261,0.1185818870348569,103.19894602915733,-1.0301869576789593
262,0.11906471427185224,103.17123235398392,-1.0265879153597062
263,0.1195352239032628,103.14422553144645,-1.0151189579653803
264,0.1199931872979159,103.11793869895708,-1.0132540946882036
265,0.12044326689442132,103.09210424571802,-1.0034903626738323
266,0.12088333070197887,103.06684455724543,-1.0018539441011993
267,0.12114301407237446,103.05193865162748,-0.9468955267035963
268,0.12140269744277005,103.03703270055753,-0.9441793130162971
269,0.12168425207467033,103.02087127718534,-1.001593750116662
270,0.12207755746199983,102.9982951934837,-0.9322229315262552
271,0.12247086284932933,102.97571900708027,-0.9297975534541816
272,0.12286384560524746,102.95316123776293,-0.9354702674809003
273,0.12311670736148364,102.93864655855587,-0.88513059852149
274,0.12336956911771982,102.92413183880797,-0.8857601619043837
275,0.1236441205777584,102.90837204501283,-0.945795469854141
276,0.12456172600334742,102.85569932999347,-0.9640619605780075
277,0.12507533856493883,102.82621651328539,-0.9666383746546425
278,0.12556803187906146,102.79793435102151,-0.9598860851580905
279,0.12604171608481382,102.77074321638284,-0.9630265817610026
280,0.1265085905986382,102.74394283234852,-0.956314170830054
281,0.1269613492604873,102.71795261119038,-0.9588491707139055
282,0.12740487061535777,102.69249251482591,-0.953067422815696
283,0.12766563201667666,102.67752359031701,-1.004663876125477
284,0.12792639341799555,102.66255461773275,-1.00368034691729
285,0.12820997470320045,102.64627561841756,-0.9429723281472582
286,0.12858162996972608,102.62494064480883,-1.0039724895787607
287,0.1289532852362517,102.60360557393093,-1.0016610246556747
288,0.12918571073764046,102.59026301291938,-0.9511672464655234
289,0.1294181362390292,102.57692041516532,-0.9870297072326787
290,0.12967830740577876,102.56198500775548,-1.035469297269433
291,0.13054052577204478,102.51248808598895,-1.0295108679331575
292,0.1310203140192009,102.4849449029004,-1.0219043044446783
293,0.13148851129474098,102.45806696297102,-1.0077004391405997
294,0.13194441933308415,102.43189436561792,-1.0031101893119065
295,0.13239268329068363,102.40616045384785,-0.991614805936001
296,0.13265580573148056,102.39105507087126,-1.0385233194249817
297,0.1329189281722775,102.37594963755195,-1.0342193083195894
298,0.13320534328194703,102.35950695293884,-0.9697166362261694
299,0.1335805636431704,102.33796599891008,-1.028409963594491
300,0.13395578400439376,102.31642494378237,-1.0224703060733733
301,0.1343383801146994,102.29446034982871,-1.010178293467005
302,0.1347239730533617,102.27232360463016,-1.0748094150705148
303,0.13563953944378354,102.21976084853833,-1.0570907252903117
304,0.13668352819896315,102.15982462403707,-1.0360902855128324
305,0.13811191788706956,102.07781842660977,-0.7939070192349097
306,0.13851004963101696,102.05496081742632,-0.7995008861690758
307,0.1389047135253255,102.03230221515948,-0.8135760491420118
308,0.13917456255508034,102.01680948161741,-0.7641352700589964
309,0.1394444115848352,102.00131670736977,-0.8180444325790782
310,0.1396694886575111,101.98839438207466,-0.8692947287612697
311,0.13989456573018702,101.97547202550577,-0.8745406502065837
312,0.14014383269216069,101.96116081750473,-0.8255553082996144
313,0.14052344105281575,101.93936622458062,-0.8873921605180028
314,0.14086594540462632,101.91970182148361,-0.8925113367518003
315,0.14121666862982646,101.89956546673805,-0.8227353588746895
316,0.14158434247696566,101.87845583312274,-0.8921882231737691
317,0.14195201632410487,101.85734611446361,-0.8975010466788856
318,0.1421798726146147,101.84426387276504,-0.8516873282578379
319,0.14240772890512454,101.83118159956136,-0.85106650588302
