,time,theta,torque
0,0.0,1.9198621771937625,-4.3763489352525236
1,0.0009613278890268891,1.918900827569427,-3.6353783352265885
2,0.0018931858016739416,1.9179689111335736,-3.0989287265967738
3,0.002803456014743349,1.9170585531963973,-2.6892035726636796
4,0.0033162673913965405,1.9165456806514092,-2.575298237819301
5,0.003829078768049732,1.9160328000984168,-2.4045184440251317
6,0.004374799924472492,1.9154869970960764,-2.1642186841406446
7,0.005366055758840336,1.914495572958663,-2.055851643301068
8,0.00635731159320818,1.9135041250414628,-1.7432186425128684
9,0.006945950213692947,1.9129153622322312,-1.739227461618043
10,0.00748021065680242,1.912380982805073,-1.7571436568252912
11,0.00808599462245623,1.9117750566700358,-1.6013342185561104
12,0.00869177858811004,1.9111691234227879,-1.546116028600428
13,0.009304552966042861,1.9105561909346473,-1.6025407075367306
14,0.009918248506863726,1.9099423296762374,-1.5512278639754207
15,0.010314310475332017,1.9095461569170753,-1.4514636319033138
16,0.010710372443800308,1.9091499813406902,-1.4289824726057438
17,0.011127510959564709,1.9087327201661861,-1.484955647655987
18,0.011864829923370984,1.9079951765680492,-1.4455568678403845
19,0.012304098266307087,1.9075557697278582,-1.3448981488216742
20,0.01274336660924319,1.9071163596520724,-1.3325561155552392
21,0.013188443144095806,1.9066711362374147,-1.405879407056065
22,0.014082537285267059,1.9057767365103861,-1.374862982802152
23,0.014813100108023437,1.9050459138038498,-1.3521381880241694
24,0.01548430741002178,1.9043744598274466,-1.4527674323397455
25,0.015976666547845443,1.903881914699789,-1.3538133108220274
26,0.016469025685669107,1.9033893654979543,-1.2497983304258022
27,0.017073879984637472,1.9027842724219157,-1.348787612815597
28,0.017678734283605838,1.9021791732626574,-1.337161324716815
29,0.01826083370004465,1.9015968324620751,-1.2165887554757562
30,0.01886763747848379,1.900989771533091,-1.2177589529565007
31,0.019438733546138443,1.900418428301101,-1.328049642163278
32,0.01989467221806269,1.8999622885081193,-1.2475953112795313
33,0.02035061088998694,1.8995061454712945,-1.1597758367267443
34,0.02112143380390534,1.8987349699892166,-1.3022496763306435
35,0.02186896772161405,1.8979870850791005,-1.293727478518363
36,0.022302896198636287,1.897552948680081,-1.2050585520907984
37,0.022736824675658525,1.897118809426087,-1.2046885150349043
38,0.02317175830390098,1.8966836616687641,-1.290938840073959
39,0.023876173471566245,1.8959788931962087,-1.2843320717591413
40,0.024292782950197732,1.8955620709886793,-1.1993501929705617
41,0.02470939242882922,1.895145246162571,-1.1988342114998853
42,0.025129957747272003,1.894724460796599,-1.2823134870780735
43,0.025954046158969745,1.8938999329113813,-1.2738889534006284
44,0.02670519454289617,1.8931483745362032,-1.2628328983259878
45,0.027384426368719045,1.8924687643270979,-1.3771995682489186
46,0.027849591996019423,1.8920033351402967,-1.2915707979520767
47,0.028276577156512345,1.8915761050904207,-1.2026006195187686
48,0.029006528015563825,1.8908457292850722,-1.20228506908729
49,0.029668316108222476,1.8901835490083556,-1.208811182081427
50,0.03028797367391275,1.8895635182230763,-1.091972451960007
51,0.030998711196818893,1.8888523460852265,-1.1077369294445023
52,0.03136240851127296,1.8884884236798807,-1.1885415361937168
53,0.03172610582572703,1.8881244993063824,-1.194525286754966
54,0.0321030210521319,1.887747346685084,-1.1222182564998346
55,0.03278797628157594,1.8870619549518826,-1.1320193370751168
56,0.03341505460291247,1.8864344711446752,-1.2605405487853236
57,0.03437075521284506,1.8854781410137862,-1.1050016524693158
58,0.03515792792868126,1.8846904399589448,-1.2534608894129549
59,0.03591765323104609,1.883930195711021,-1.2461466652089015
60,0.03630388003219294,1.8835437016069245,-1.1668543518049626
61,0.036690106833339786,1.8831572053157137,-1.1657625199304666
62,0.037084696031163246,1.8827623385352126,-1.2444174049116234
63,0.03794068920896277,1.881905734771298,-1.235825280110152
64,0.03832393624714999,1.8815222106371294,-1.157313807185236
65,0.03870718328533721,1.8811386843665885,-1.1565138779091428
66,0.039099111702529825,1.8807464681826374,-1.2352700479068235
67,0.03994895669641526,1.8798959909642445,-1.2275768683528743
68,0.04032998891221371,1.879514671635512,-1.1496986302771917
69,0.04071102112801216,1.8791333502088627,-1.1490088695222749
70,0.04110087642608825,1.8787431968318042,-1.2274585017464563
71,0.04178342654499289,1.8780601191957014,-1.223073053681176
72,0.04242108110425272,1.8774219654111552,-1.0958558359184984
73,0.04302009287611477,1.8768224794217347,-1.2066753090969815
74,0.04336481196612156,1.87647748503046,-1.269720966412041
75,0.043709531056128355,1.8761324887709878,-1.264406562865981
76,0.044073073729824094,1.8757686517790884,-1.1861027731557976
77,0.044758544111683334,1.875082621194886,-1.1804918931071755
78,0.04538639093088839,1.874454255189886,-1.2937331746175285
79,0.04632742171295353,1.8735124347580465,-1.125919313616049
80,0.046903741435806584,1.8729356251758273,-1.1272157943503602
81,0.04744828257008652,1.8723906168745141,-1.235076752530591
82,0.047894598954283274,1.871943914265345,-1.1562887297743174
83,0.04834091533848003,1.8714972087788757,-1.0698124163878904
84,0.0487799204734226,1.871057818286405,-1.0748915798882588
85,0.04921527207672938,1.8706220819484505,-1.1684242373090177
86,0.04992704679852401,1.8699096721943422,-1.170272969919365
87,0.050292734306119066,1.8695436555124152,-1.097159922598198
88,0.050658421813714126,1.8691776369832716,-1.0983206724528385
89,0.051034207479790455,1.8688015092272463,-1.1768833015457778
90,0.05180023892750074,1.8680347739272765,-1.1755336467221573
91,0.05250026803269966,1.867334094097753,-1.0388418960146013
92,0.05307076183158282,1.866763065091758,-1.1482266753505792
93,0.05364125563046598,1.8661920314550684,-1.1521023027064907
94,0.05418648340904682,1.8656462833797272,-1.0457738486845962
95,0.054896847460263125,1.8649352355865445,-1.057253330438894
96,0.05530891334964368,1.8645227700378741,-1.1463640289587445
97,0.05572097923902424,1.8641103020641658,-1.1497287587755587
98,0.05613745652190388,1.8636934159234224,-1.067037441838303
99,0.05684834273778411,1.8629818265074272,-1.0744257011651162
100,0.057492057327013284,1.8623374692827674,-1.2045657008669894
101,0.0584115721483573,1.861417026060941,-1.049992969658219
102,0.05916796647183283,1.8606598594227481,-1.1903099223814726
103,0.05991798654403641,1.8599090653141506,-1.1818692663271053
104,0.06029772942615133,1.8595289273327866,-1.1025972530564685
105,0.06067747230826625,1.8591487873581063,-1.1007314983803342
106,0.06106495046376388,1.8587609019688844,-1.1780898959665225
107,0.06191227764277793,1.857912676483963,-1.1689675200630438
108,0.06232415562533711,1.8575003580082199,-1.0837380089817503
109,0.06273603360789629,1.8570880372244283,-1.0831358796058195
110,0.06314944851502555,1.8566741755437859,-1.1669817843930868
111,0.06388523222000449,1.855937590487371,-1.1611944271492316
112,0.06430766580676224,1.855514693249061,-1.0740903036625065
113,0.06473009939352,1.8550917936037374,-1.073887478331885
114,0.06515182468013546,1.854669600639679,-1.1596280226514057
115,0.0658732308170938,1.853947388489971,-1.1543861071095802
116,0.06628982183623214,1.8535303285809883,-1.0683776381040513
117,0.06670641285537048,1.8531132663439829,-1.0681449376816787
118,0.06712324310437032,1.8526959622769912,-1.1531858824981838
119,0.06786061636293728,1.8519577446703903,-1.1478709924655894
120,0.06828314625722093,1.851534727409001,-1.0607009866108783
121,0.06870567615150458,1.8511117077697512,-1.0606725353710291
122,0.06912706157915238,1.8506898315558105,-1.14668603905155
123,0.06987127877678,1.8499447413240862,-1.1413831448802672
124,0.07029591044110517,1.849519607964678,-1.053797132292748
125,0.07072054210543034,1.8490944722193845,-1.0538726858700032
126,0.07114350182582814,1.8486710080311768,-1.1405381764796996
127,0.07188197540914935,1.8479316475230567,-1.1354740033789015
128,0.07230410435417228,1.8475090080922372,-1.0484235264609891
129,0.07272623329919521,1.8470863663161428,-1.0484197134002269
130,0.07314694696581749,1.8466651392046394,-1.1345135951263192
131,0.07386351622208197,1.845947689638334,-1.129856889092856
132,0.07427699876186804,1.8455336958147952,-1.044363134232801
133,0.07469048130165411,1.8451196997506452,-1.0441629213896446
134,0.07510410641359107,1.8447055586959062,-1.128960349706027
135,0.07585912957883795,1.8439495874801315,-1.123720911190683
136,0.07628709660619394,1.8435210794939276,-1.0353492407406029
137,0.07671506363354993,1.8430925691274553,-1.0355245405431608
138,0.07714016204454643,1.842666928663092,-1.122764057989812
139,0.07779439489516933,1.8420118566266335,-1.1191596432809643
140,0.07840486892160822,1.8414005941868812,-0.9952661816566779
141,0.0790831804438979,1.840721401021584,-1.1210296149267016
142,0.07976149196618756,1.8400422015346747,-1.1164667793004075
143,0.08039076306854048,1.8394121009718036,-0.9885538764846113
144,0.08114379545652992,1.8386580693356431,-1.1284030752918637
145,0.08189682784451935,1.837904029890737,-1.1199784018911556
146,0.0822745196709187,1.8375258299519481,-1.0403656160935022
147,0.08265221149731805,1.837147628156353,-1.0383240796086874
148,0.0830363421365042,1.836762976952045,-1.1157907770137552
149,0.08380105607376429,1.8359972205331152,-1.108640875334173
150,0.084497058964531,1.8353002618438676,-0.9675570767550293
151,0.0857869996665332,1.8340085339500836,-0.9778859479059642
152,0.0862315027851191,1.8335634106927348,-0.8966356635356334
153,0.08667600590370499,1.8331182851823615,-0.9074336354109471
154,0.08711163607146506,1.832682042839009,-1.0086126719632085
155,0.08782702251044068,1.8319656458328706,-1.0196524676615257
156,0.08847923821971601,1.8313125031183033,-0.8967949865859004
157,0.08906313764001125,1.8307277695626734,-1.0145128961153953
158,0.0896470370603065,1.8301430317289185,-1.0229948952295826
159,0.09019744016714355,1.8295918343291329,-0.9171683278714123
160,0.09086325971252772,1.828925049254438,-0.9304450306446562
161,0.09146945613871298,1.8283179692438953,-1.0629235916878554
162,0.09190296489842044,1.8278838257115007,-0.9895587007511587
163,0.0923364736581279,1.8274496798563657,-0.9076087797914391
164,0.09283522480945083,1.8269501930648657,-0.9169496907342543
165,0.0933137194522942,1.8264709899515263,-1.0242631412502994
166,0.09447322417007187,1.8253097567689511,-0.8509551343337307
167,0.09512871070032991,1.82465328648697,-0.987414166019772
168,0.09578419723058795,1.8239968109699884,-0.9979861444837438
169,0.09638927967016278,1.8233908108503083,-0.882997637473001
170,0.09712858076997527,1.822650382783873,-1.030833248985241
171,0.09786788186978776,1.8219099478241032,-1.0330157099328938
172,0.09828514466349826,1.8214920419404135,-0.9486622599841213
173,0.09870240745720876,1.821074133982025,-0.950962587113981
174,0.09911668535270507,1.8206592134804747,-1.0395519056558336
175,0.09984729521726553,1.8199274648691268,-1.0392635113123048
176,0.10026169400603308,1.819512417089201,-0.9544272232011985
177,0.10067609279480062,1.8190973672537802,-0.9556831287588564
178,0.10108803316568334,1.8186847776592325,-1.0425692906590271
179,0.10182404873886575,1.8179475965864729,-1.0406166676739048
180,0.102493855205679,1.8172767233957314,-0.9060443031969946
181,0.10306644187785167,1.8167032206476934,-1.0156586925777331
182,0.10363902855002435,1.816129713804726,-1.018640910390018
183,0.10418060396638121,1.815587264247484,-0.910235439940769
184,0.10485456459437587,1.8149122111347202,-0.9191525619643558
185,0.10546567929309908,1.8143001013025406,-1.0486218261333984
186,0.10605462539558089,1.813710191711507,-0.9471786506274729
187,0.1066435714980627,1.8131202780190745,-0.9492066654056395
188,0.10719154789162648,1.8125713976523676,-1.0614288300573216
189,0.10845311243423494,1.811307737648892,-0.8561682782720439
190,0.10903168808250067,1.8107281950600218,-0.971296878109794
191,0.10936100147661874,1.8103983295422827,-1.0383006411042466
192,0.10969031487073681,1.8100684626358692,-1.0378483203435942
193,0.11003421289487411,1.8097239851059272,-0.9649263836571634
194,0.1107064142445801,1.809050646988332,-0.9638628864246837
195,0.11131655301879811,1.8084394717129284,-1.083429903596651
196,0.11180141629746418,1.8079537812713375,-1.082104683353361
197,0.11228627957613024,1.8074680878504945,-0.9757649955040789
198,0.11292303296632132,1.8068302399625364,-0.9719725142386176
199,0.11330187552756736,1.8064507439251807,-1.0473407184031738
200,0.1136807180888134,1.8060712460392039,-1.0445891520141546
201,0.11406677471598449,1.8056845197129259,-0.9616113045752975
202,0.11472486308905501,1.8050252856902425,-0.959355564191611
203,0.11532427488245757,1.8044248259052913,-1.0761485816515781
204,0.11580789251541251,1.8039403593241674,-1.0744366353361627
205,0.11629151014836746,1.803455889803648,-0.9679590072279259
206,0.11681048606010976,1.8029359965946308,-0.9636438482394725
207,0.11730488057745414,1.8024407252286896,-1.0600820226669585
208,0.11832109290813501,1.8014227009122004,-0.8837496972456728
209,0.11885155873391595,1.8008912846131313,-0.8884873325294165
210,0.11935329022386963,1.8003886512547862,-0.9961542569167543
211,0.1199999299172436,1.7997408447694023,-0.8870677033026517
212,0.12064656961061758,1.7990930336530468,-0.892822517061297
213,0.12123602445993983,1.7985025069146057,-1.0161816019959196
214,0.12196768275450978,1.7977695120742732,-1.009602526155975
215,0.12233268383334765,1.797403841701078,-0.9317982982340742
216,0.12269768491218552,1.797038169782753,-0.929594561928846
217,0.12306850321020531,1.7966666683739354,-1.0056218123201053
218,0.12378505677391606,1.795948789898056,-1.0003891854589673
219,0.12443813173088175,1.7952945018887687,-0.8657763408142295
220,0.12516246831342573,1.7945688143020193,-1.0019069024505343
221,0.1258868048959697,1.7938431203423326,-0.9962488408031628
222,0.1262963879982597,1.7934327668060281,-0.9095382657793387
223,0.1267059711005497,1.7930224113685305,-0.9084140183734941
224,0.12711263900040098,1.792614974751949,-0.9926712031614818
225,0.12782641890851767,1.7918998406477498,-0.9880193922935209
226,0.12847668211636828,1.7912483383528361,-0.8541797582892994
227,0.12905559205856812,1.7906683213608054,-0.9631088233292766
228,0.12938490386811063,1.7903383780749171,-1.0263462193888588
229,0.12971421567765315,1.790008433426273,-1.022479841265652
230,0.1300579322318402,1.789664054905019,-0.9465774794462481
231,0.1307320628519406,1.7889886220267448,-0.94047542988248
232,0.13134202193671585,1.7883774800979617,-1.0558976357244023
233,0.13198041710809755,1.7877378419404282,-0.9355775618755388
234,0.13233214117988631,1.7873854310024369,-0.8638861028136117
235,0.13268386525167508,1.7870330187297634,-0.8649324794785573
236,0.13304228642161423,1.7866738948794965,-0.9424016208922535
237,0.13378626837770036,1.7859284494933712,-0.9437704068575795
238,0.13445685266992172,1.7852565406224088,-0.8095725243760721
239,0.1351844466528548,1.7845275040989512,-0.9526950688084377
240,0.13590169368610203,1.7838088291019678,-0.9516355784575748
241,0.13630642201635532,1.7834032922984904,-0.8673714286355747
242,0.1367111503466086,1.7829977537241846,-0.8676564117279163
243,0.13711287237369826,1.7825952257200226,-0.9526964289884978
244,0.1378005711726058,1.7819061427377803,-0.951091849872181
245,0.1384287043160852,1.7812767404679377,-0.8225511023201614
246,0.13900986347117145,1.7806944033627372,-0.9330802577188082
247,0.1393394572693811,1.7803641398309247,-0.9972198865488969
248,0.13966905106759075,1.7800338749749536,-0.9938042994890286
249,0.14001221569364664,1.7796900102601418,-0.9180680174387934
250,0.14064847121013063,1.7790524532472718,-0.9124885697633235
251,0.14122944263933068,1.7784702894271645,-1.023708671887178
252,0.14192617938806248,1.7777721171207728,-1.007424304394722
253,0.1423258056555186,1.7773716647250002,-0.9181506014601776
254,0.14272543192297474,1.7769712105177524,-0.9125645212790643
255,0.1431239115267849,1.7765719035560386,-0.9906890442790119
256,0.14387784312592947,1.7758164012398303,-0.9782755506047175
257,0.1442974214265589,1.7753959458042636,-0.8869006168963754
258,0.14471699972718835,1.7749754884345648,-0.8836433542487379
259,0.14513078597307116,1.7745608333673943,-0.9672829123658262
260,0.14583292067956502,1.7738572197021236,-0.9595372879538396
261,0.14647294360599777,1.7732158435986296,-0.8248643796605433
262,0.14704461007176592,1.7726429648031712,-0.9308603345324956
263,0.1473697829733743,1.7723171006846825,-0.9926930551346378
264,0.1476949558749827,1.7719912352871208,-0.9880771093622001
265,0.14803428023581017,1.7716511869371656,-0.912042936283726
266,0.14866553626323395,1.7710185806682965,-0.9045544408032471
267,0.14924225104879088,1.7704406284269403,-1.0134460030132444
268,0.14986166055012207,1.769819885297399,-0.9981302576078136
269,0.15044037213787492,1.769239923493021,-0.8698442271071355
270,0.15101301917244359,1.7686660356967245,-0.9687602232652804
271,0.15133971169915958,1.7683386336239886,-1.0261151138395743
272,0.15166640422587557,1.7680112302228088,-1.0175727882975312
273,0.15200815544175042,1.7676687339565207,-0.9381643694870272
274,0.1523567104073424,1.7673194177257225,-0.8630303189403361
275,0.15270526537293436,1.7669701001983027,-0.8602612485497179
276,0.15306066093264972,1.7666139257788764,-0.9333032577035694
277,0.15377639731444423,1.7658966163855085,-0.928089110726552
278,0.15442499524974931,1.7652465879637669,-0.7930815275524447
279,0.1549912364038258,1.7646790944454833,-0.8998349474352765
280,0.15535889183221274,1.764310624014931,-0.9708059521997864
281,0.15572654726059967,1.7639421519884,-0.9657519249183366
282,0.15610108024823427,1.7635667854954016,-0.8822951907757894
283,0.15674020703093924,1.7629262329046829,-0.8761517713477003
284,0.15732187115749474,1.7623432673382764,-0.9877891708499877
285,0.15830167524491798,1.761361262166427,-0.8102246129651772
286,0.1587999509013426,1.7608618633901847,-0.8114483887426847
287,0.15927399517897517,1.7603867482924784,-0.9118700411811979
288,0.15995168371039326,1.7597075245390674,-0.9086143668958677
289,0.16029361712922835,1.7593648145384768,-0.8354889362017134
290,0.16063555054806344,1.7590221033308608,-0.8334198734820999
291,0.16098481432006642,1.7586720438515069,-0.9062104286902656
292,0.16135221861395163,1.758303801061665,-0.9749470269245776
293,0.16171962290783684,1.7579355566761043,-0.968144922675048
294,0.16209412140837512,1.7575602002326027,-0.8833155750493578
295,0.16275116147185878,1.7569016513392217,-0.87500759850599
296,0.16334574992154519,1.7563056934841967,-0.9871982942930747
297,0.1638179186790032,1.7558324343044085,-0.9823715260435966
298,0.1642900874364612,1.7553591726067181,-0.8746122957859495
299,0.16491096390490934,1.7547368553692129,-0.8667886209347466
300,0.16547860635261857,1.7541678921001707,-0.9748180251216084
301,0.16648794419509758,1.7531561966484104,-0.7911142096246241
302,0.16720532933644258,1.7524371295638512,-0.9244556106806016
303,0.16787480704963934,1.7517660771750303,-0.9162166864543175
304,0.1684876139391118,1.7511518245227151,-0.7853407255576937
305,0.1691831816974814,1.750454611178271,-0.9136990855700223
306,0.169878749455851,1.7497573925714975,-0.9060420505355482
307,0.17027272382129743,1.7493624807473043,-0.8203553492574058
308,0.17066669818674388,1.7489675673544545,-0.8175600986305773
309,0.17105812163358583,1.7485752094116367,-0.8982746414585472
310,0.17175877936819545,1.7478728746586762,-0.8925331423778627
311,0.1723940545790911,1.7472360743078863,-0.7588507116666011
312,0.173112993069909,1.7465154050907166,-0.8962981602322452
313,0.17377904469445316,1.745847745224492,-0.8906744688523172
314,0.17438772138782282,1.745237594621823,-0.7618747666325375
315,0.17509807368970365,1.7445255176429149,-0.896363012603855
316,0.17576324307406715,1.7438587284776907,-0.8901025708755138
317,0.17637129546699612,1.7432491912030696,-0.7609153253969791
318,0.17707978629310628,1.7425389656919856,-0.8943989871276129
319,0.17774356928935411,1.7418735527050975,-0.887712805053113
320,0.17835042661215872,1.7412652010210161,-0.7584822116494501
