,time,theta,torque
0,0.0,1.9198621771937625,-135.0844310926892
1,0.0005107695675596781,1.919862124648647,-81.27561428841429
2,0.0010003354194711195,1.919861975647939,-54.95385580807906
3,0.0016479856456644124,1.9198616301906606,-35.94293440248252
4,0.002462871930101296,1.919860955485709,-23.280806789351782
5,0.0034982577334465737,1.9198597123526462,-15.14431140491589
6,0.004477282090748408,1.9198581396597398,-11.059241768330196
7,0.006120574443890672,1.9198546319025085,-7.29967455125329
8,0.008078792014174684,1.9198490312595184,-5.0681724245668045
9,0.010504508901397133,1.9198399511895705,-3.3761478352851
10,0.012839355685678277,1.9198289716965151,-2.3096785206347157
11,0.014316982826632301,1.9198208879832714,-1.9008647604214535
12,0.015134214754829555,1.9198160391285497,-1.7278710386708258
13,0.01595144668302681,1.9198109210293164,-1.709680638427522
14,0.01676462597286873,1.9198055610421894,-1.8199651118100786
15,0.019761154689755082,1.919783508013093,-2.043402604918156
16,0.021000391358190137,1.9197733292454873,-2.0918360881455214
17,0.021663025435439062,1.9197676323350799,-2.1123371451814643
18,0.022325659512687987,1.9197617582655129,-2.0373784237594896
19,0.022992815726625412,1.9197556651136074,-1.8732280119908762
20,0.025347035700887297,1.919732728593884,-1.4641542091203132
21,0.027675482421210863,1.9197078422507525,-1.2192875975146524
22,0.02806473001297894,1.9197034683872225,-1.1877067687262497
23,0.028453977604747018,1.9196990333247714,-1.2305143656802715
24,0.028852109532755753,1.919694433719827,-1.350246596003615
25,0.03044686465755616,1.9196753675590095,-1.6891374015778389
26,0.03303104534334819,1.9196422901047052,-1.9640539292042696
27,0.033927609575076206,1.9196301832706193,-2.019523638140499
28,0.03482417380680422,1.9196177513516741,-1.937959486502171
29,0.035681574486658145,1.9196055583236422,-1.749235933833029
30,0.038456328031050084,1.9195640596474481,-1.342787860681413
31,0.04079179263467008,1.9195267149369375,-1.140929569071585
32,0.04159412117837149,1.9195133755906824,-1.3730881712666467
33,0.04234018490362719,1.9195007376362,-1.550074255369254
34,0.045154104038665134,1.9194510407179064,-1.9210761614278848
35,0.04630769205348202,1.9194297389328634,-2.001424023634698
36,0.04746128006829891,1.9194078971294106,-1.9008747506747619
37,0.04852616242554938,1.9193872553618052,-1.679668662105464
38,0.051793471076011774,1.9193210468836717,-1.256824620977925
39,0.0533682733054041,1.9192875855218783,-1.1323399919615893
40,0.054137167767230765,1.9192708815986397,-1.3560762990932862
41,0.054878354233839605,1.919254551921401,-1.535614650771978
42,0.05778305902405166,1.91918840038255,-1.9209326918648928
43,0.05892936829558154,1.9191613486138699,-2.000256225439222
44,0.06007567756711142,1.9191337612181036,-1.9000174935784453
45,0.061134612719693754,1.9191078004361064,-1.6794982611748075
46,0.06439757000421491,1.9190249283770482,-1.2554532463888495
47,0.06597152136084973,1.9189833986416986,-1.130344660544915
48,0.06674084266607962,1.91896273113687,-1.3539771231180369
49,0.0674826879131419,1.9189425725295917,-1.533545776079319
50,0.07040917775904598,1.9188608526018232,-1.9202332930440726
51,0.07143020732962015,1.9188315158360085,-1.9916329483420776
52,0.07199399778549138,1.9188151336192703,-2.023253856518779
53,0.07255778824136262,1.918798621092552,-1.9703063537333898
54,0.07313808435389263,1.9187814890158883,-1.83304871958794
55,0.07528537109229708,1.9187168931715377,-1.4621707566948532
56,0.07767127016765851,1.9186428985919828,-1.2090642783233951
57,0.07818160541823514,1.918626767689041,-1.1680996045076097
58,0.07869194066881177,1.9186105296863134,-1.2252174281453423
59,0.07918755172375451,1.9185946576464505,-1.3713582347625701
60,0.0809722966248676,1.9185366634119243,-1.7250491270923098
61,0.08351823442605458,1.9184516640338196,-1.9721046006959313
62,0.08434641042589303,1.9184234383177847,-2.019994417981664
63,0.08517458642573147,1.9183949296244094,-1.9423659597979486
64,0.08597594506206108,1.9183670745745263,-1.7619875194875403
65,0.08863461540149994,1.9182727597227884,-1.3565044062738385
66,0.09096527754869993,1.918187676291607,-1.144710221524578
67,0.09176781616193576,1.9181578581960734,-1.3743038342417153
68,0.09251206688927387,1.9181299672812737,-1.5486039470183182
69,0.09554785183196836,1.9180138212718512,-1.9305968614697873
70,0.09658118138277309,1.9179734144204519,-1.9983162171310478
71,0.09715061041877911,1.917950958115807,-2.028245132633501
72,0.09772003945478512,1.9179283670215839,-1.9731425174549264
73,0.09830531470610468,1.917905006737962,-1.833515372943985
74,0.10046650077137338,1.9178175115942204,-1.4577649782855568
75,0.10284180989305954,1.9177191032231564,-1.2040560645978762
76,0.10335149097272163,1.9176976806676156,-1.162797478145485
77,0.10386117205238372,1.9176761496945574,-1.2195815158006145
78,0.10435613191888671,1.9176551368045114,-1.3654777938824456
79,0.10612338046285368,1.9175792754697192,-1.716690094631862
80,0.10867237872994703,1.9174675560429486,-1.965202426162468
81,0.10949622274093272,1.917430866290002,-2.013017261473393
82,0.11032006675191841,1.9173938920979716,-1.9358125766305645
83,0.11111752826300535,1.917357830880434,-1.756033919572879
84,0.11376845703546205,1.9172360373628328,-1.350472909133171
85,0.11609840750503665,1.917126551910402,-1.1377992118626867
86,0.1168962968680329,1.9170885335244292,-1.3660813990169853
87,0.11764114469555435,1.9170528004524445,-1.5410885131445105
88,0.1206787530571,1.916904652419542,-1.9238931299224586
89,0.12170838009702821,1.9168535520671608,-1.9914062294169796
90,0.1222759260554406,1.9168251931851996,-2.0212553219531335
91,0.122843472013853,1.9167966980639883,-1.9662641580512201
92,0.12342689017035008,1.9167672639688078,-1.8268612334878507
93,0.12558246279796956,1.9166572627486627,-1.4511371756704095
94,0.1279594362413061,1.9165336789057346,-1.1964592231302786
95,0.12846927671170993,1.916506858763358,-1.1550654913728706
96,0.12897911718211377,1.916479928154846,-1.2118448025693134
97,0.12947400257795144,1.9164536818029538,-1.3579245843541516
98,0.13127491557978171,1.91635729047718,-1.7145098684385986
99,0.1338222190227101,1.9162185904445008,-1.9603152493559899
100,0.1346455377707665,1.916173169043299,-2.007627934610686
101,0.13546885651882287,1.9161274581573973,-1.9300108673078518
102,0.13626561606886528,1.9160829460362072,-1.749903221586624
103,0.13891637087648914,1.9159329028953807,-1.343080805220872
104,0.14124444169482064,1.9157986414671857,-1.1297072207953722
105,0.14203717170210864,1.915752393281028,-1.356570692610041
106,0.14278272642307904,1.9157086509370822,-1.5324075540961561
107,0.14589235163278086,1.9155236277477112,-1.9210822052843761
108,0.1469191378938261,1.9154616189261657,-1.9872898845522335
109,0.14794592415487134,1.9153991552354668,-1.8943397102433737
110,0.14890735527524102,1.915340254652776,-1.6871493864211127
111,0.15191928007630773,1.915153146155464,-1.2686209975937401
112,0.152949671029191,1.9150882337238246,-1.1754356619103379
113,0.153542848343677,1.9150506560000504,-1.129050378900103
114,0.15413602565816303,1.9150129255916486,-1.197251386111239
115,0.15469512993976325,1.9149772226243102,-1.3616857474999122
116,0.15665878501625477,1.9148507522756337,-1.7349594909619515
117,0.159196454095137,1.9146848265349472,-1.9649252533800123
118,0.15988983040737037,1.9146390017912596,-2.0033539206253788
119,0.16058320671960374,1.9145929672388085,-1.9371729873795083
120,0.16127219800070644,1.9145470158640747,-1.7769003487461128
121,0.16367494618519407,1.9143851438952761,-1.3835120719180354
122,0.16601583197782496,1.9142250082898813,-1.1510095496208783
123,0.16671759139001607,1.9141765339649865,-1.2278673980251875
124,0.16735854834578498,1.9141320706346787,-1.4072885228563583
125,0.16948007763675885,1.9139836114972006,-1.7748542349082064
126,0.17205051936825677,1.9138010833795442,-1.9827758034127794
127,0.17346639240981707,1.9136992966667854,-1.8543198129694218
128,0.17474151567678045,1.9136068702706577,-1.5976476817504943
129,0.17872182714272947,1.913313728674738,-1.1347217481470302
130,0.17941099734434132,1.9132622588659314,-1.2115558927582029
131,0.18004239824987056,1.9132149182060982,-1.3906453706180775
132,0.18217871271615146,1.913053428068425,-1.76613075492345
133,0.1847349411023511,1.9128575224809266,-1.9759386506266727
134,0.18614587147762424,1.9127481410936118,-1.848850237344926
135,0.18741651115280783,1.912648873582099,-1.5931754419278286
136,0.19144847931809533,1.9123290876881505,-1.1251612549765233
137,0.19221564379568118,1.912267414988055,-1.3426344631354135
138,0.192953993158481,1.9122078086368972,-1.5168221367765833
139,0.19574442374623274,1.9119803207143566,-1.8817012994074238
140,0.19702558920560556,1.9118746973460254,-1.9680504911793235
141,0.19830675466497838,1.9117683317991812,-1.852399297209667
142,0.1994719249451411,1.91167095123324,-1.6121263471265803
143,0.20299971881767456,1.9113723563034823,-1.1724056887683283
144,0.2040724150811049,1.9112804410531625,-1.088345838614207
145,0.2048447264622814,1.9112139402303536,-1.3126040604101934
146,0.20559825753945518,1.9111487945150163,-1.495878523622425
147,0.20834444069082775,1.910909183064479,-1.8668493700889084
148,0.20961167862509303,1.9107974508721697,-1.9557257013667257
149,0.2108789165593583,1.9106849832670219,-1.843385408783892
150,0.21203201876085245,1.910582005386905,-1.6059846223135341
151,0.21552706049179374,1.9102661484673875,-1.168999286788069
152,0.21659897916112192,1.9101681493268468,-1.0844854681631406
153,0.2173708591015653,1.9100972527643225,-1.308441957685316
154,0.21812493251093723,1.9100277261439946,-1.4918158958440075
155,0.22082471926489622,1.9097766468103967,-1.8585585187506832
156,0.22209000121709652,1.909657814530206,-1.948229518416164
157,0.22335528316929681,1.9095382396630805,-1.8363990456908397
158,0.22450623264442848,1.9094288239479325,-1.5993469816882697
159,0.22797010390773934,1.9090958093731167,-1.1651684349263298
160,0.22871780307074857,1.9090231919246508,-1.104395378710441
161,0.2291240491780863,1.9089836273541687,-1.0744683900471723
162,0.229530295285424,1.9089439856739665,-1.1228634842115504
163,0.2299401233678709,1.9089039162974557,-1.2515504042567016
164,0.2315663454948091,1.9087441441407853,-1.614756505156331
165,0.23430621084768197,1.9084721566111555,-1.90937454287281
166,0.23508414142772746,1.9083942888117458,-1.9572929861468589
167,0.23586207200777295,1.9083161365030288,-1.885683792468584
168,0.23661907366252144,1.9082398134023442,-1.7134714819413646
169,0.23916016000955545,1.9079816393513038,-1.3147314125016578
170,0.24150205383508344,1.907741003973697,-1.0937682984684134
171,0.2421919881235815,1.9076696168197904,-1.172382934443487
172,0.24282316001331297,1.9076041123275886,-1.3543509449748152
173,0.24490817605812717,1.9073863818471737,-1.7302162792410212
174,0.2474483053191491,1.907118335199816,-1.944787520879577
175,0.24870985375026322,1.906984069124436,-1.8313535126268892
176,0.249857608548139,1.906861254807457,-1.5934378277357146
177,0.25337555272577417,1.9064808997489133,-1.150113277971782
178,0.2544458905006828,1.906364000849376,-1.0649156151394572
179,0.25521673802128964,1.906279470974618,-1.28858593574224
180,0.25597490786078436,1.906196053067043,-1.473654763471966
181,0.2586788380666089,1.9058963019907131,-1.8418519176885015
182,0.2597950917682431,1.9057715302081748,-1.9228421538209908
183,0.2603988273254701,1.9057037959200527,-1.9570665513330918
184,0.2610025628826971,1.9056358857188969,-1.8996665462089153
185,0.2616144083870061,1.905566883698165,-1.7543882818002647
186,0.2638266872329292,1.9053158794576481,-1.3739809168634722
187,0.2662011811141047,1.9050438327762074,-1.1233351497857866
188,0.26671165388370666,1.9049849904416474,-1.0823239125644302
189,0.26722212665330863,1.9049260215273487,-1.1402582858479628
190,0.26771577304590044,1.9048688759143018,-1.288833425984786
191,0.2695514029959606,1.9046553392610002,-1.6594803255754316
192,0.27212766043781444,1.9043528769780396,-1.9083536955131601
193,0.27285328899205435,1.9042671006854925,-1.9502270334577345
194,0.27357891754629426,1.904181067017444,-1.8813238364312588
195,0.27429239649155046,1.9040962227283493,-1.7156530650973931
196,0.2767361180636616,1.9038037348426933,-1.318460553277871
197,0.27907956641035764,1.9035204960589627,-1.08772117070117
198,0.2797788703270236,1.9034354522777428,-1.1655117488989313
199,0.28041656203008464,1.903357691448324,-1.3475378241879676
200,0.28252698595990866,1.9030989149877517,-1.72151922592989
201,0.2850702082486112,1.9027841482014591,-1.9310408550473066
202,0.2863363035073294,1.9026262546710508,-1.8152701415825183
203,0.28748659357281825,1.902482114523241,-1.575359760648291
204,0.2909847582568179,1.9020397315123205,-1.131227992654965
205,0.29205211731731,1.9019035398958188,-1.0455104436653522
206,0.29282148056391993,1.9018050195691716,-1.2688670086443534
207,0.29358346552638126,1.9017071531330292,-1.455586668791275
208,0.296215598773885,1.901366861542596,-1.8179081594913746
209,0.2974663892601862,1.901203940491303,-1.9084861804988138
210,0.29812815105616247,1.901117426126158,-1.9448582408555204
211,0.29878991285213874,1.9010306922545874,-1.8807131762838563
212,0.29945004528745006,1.9009439530991608,-1.7244684649139654
213,0.30177901392276046,1.9006361866936894,-1.3316595766545618
214,0.30412470066819197,1.9003234532469548,-1.0896538613151305
215,0.3045455268007843,1.9002670542627467,-1.0560884987596508
216,0.3049663529333766,1.9002105659641044,-1.1040460229161848
217,0.3053875546197902,1.9001539377843568,-1.2340891484897485
218,0.30711105879214745,1.899921289178454,-1.605269413268605
219,0.30980517390632406,1.8995546124828948,-1.8815583714716768
220,0.3105818338668742,1.8994482241507686,-1.9276103961121394
221,0.31135849382742437,1.899341529870686,-1.8542906121248257
222,0.31211303141461616,1.8992375814589129,-1.680630827245912
223,0.31465517514737634,1.8988852350040903,-1.2762401272081763
224,0.31698646276537723,1.8985592216504086,-1.0521589755575211
225,0.31767349525861666,1.898462616482102,-1.1298930858697513
226,0.31830137424050786,1.8983741182736404,-1.3119652079153548
227,0.3204311102074485,1.8980724357865126,-1.696419638520673
228,0.3229648050447709,1.8977105074115674,-1.9086982575347986
229,0.32422514082161635,1.8975292473799614,-1.7940401444544654
230,0.32536919298428163,1.897364004815116,-1.5548909514904876
231,0.3289088691753277,1.8968484829542822,-1.1040859359699646
232,0.3295155635141729,1.8967594753420507,-1.0532331551196226
233,0.3301222578530181,1.896670277818937,-1.1208346738520978
234,0.33068953145090235,1.8965867041281674,-1.287479028890579
235,0.33274743765315823,1.8962821270007588,-1.6727213506077325
236,0.3352870481136242,1.8959032350614826,-1.8940464545618294
237,0.3365369978759667,1.8957155237906194,-1.7817078738277263
238,0.33767158011981846,1.8955444357136466,-1.544579636566089
239,0.34110252472611297,1.895022998390402,-1.1043844821265663
240,0.3418480554135247,1.8949088815379993,-1.0418933560302481
241,0.34225190636254704,1.8948469439101463,-1.0111832716224312
242,0.3426557573115694,1.8947849212218923,-1.0588056050821173
243,0.3430621897591249,1.8947224161656508,-1.187008800097387
244,0.3447432065488218,1.8944629774090547,-1.56371764553306
245,0.34757586888083675,1.8940224581863665,-1.8608460338413488
246,0.3482672728028707,1.8939142973057033,-1.9022374426913498
247,0.3489586767249046,1.893805885897481,-1.8371701152576836
248,0.3496416809157544,1.8936985454435167,-1.6772053252175323
249,0.3520107506227966,1.8933243265593822,-1.284037542835857
250,0.35436308508175957,1.892949832373138,-1.0458428693629969
251,0.35478219329336386,1.892882804230658,-1.0129704886715518
252,0.35520130150496815,1.8928156835658518,-1.0615103427081205
253,0.35562018246689564,1.8927485068187213,-1.1923441357092115
254,0.35732193309460825,1.8924746424349144,-1.5668249349070487
255,0.36010673776493723,1.892023183312346,-1.8545969861220022
256,0.36086948400957136,1.8918988154234886,-1.8994800677289174
257,0.3616322302542055,1.8917741396886107,-1.8268198156468969
258,0.36237399500372586,1.891652598089226,-1.6546355027823234
259,0.36488521175297395,1.8912389589919323,-1.2495318727281204
260,0.3672157446249547,1.8908520875854415,-1.0214165052657376
261,0.3679007347462709,1.8907378295748167,-1.0983644923917302
262,0.3685261945237546,1.8906332834261796,-1.2803185042040233
263,0.3706723104160615,1.8902729753855065,-1.6685213495652702
264,0.37320625574415606,1.8898443955532893,-1.8796922676178824
265,0.37446564000047633,1.8896301145444943,-1.7639626405756068
266,0.37560668312287915,1.8894352374172119,-1.5238079771238888
267,0.37912101876139787,1.888830653626779,-1.071487691998389
268,0.37972465543565104,1.8887261423011854,-1.0201774988933265
269,0.3803282921099042,1.8886214356618793,-1.0871307413345772
270,0.3808922972285562,1.888523426934852,-1.25354897368448
271,0.3829186215867605,1.8881698987457727,-1.637336190150373
272,0.38547094312227315,1.8877214624281031,-1.861855326269198
273,0.38672124807010244,1.8875005086396501,-1.7488465185426716
274,0.38785363383053045,1.8872996673017641,-1.510833768463046
275,0.3912512939696648,1.8866929066746445,-1.0707679493426459
276,0.3920799818641825,1.8865439732977194,-1.0009327879193042
277,0.39247596452563305,1.8864726756109063,-0.9708419540957245
278,0.39287194718708357,1.8864012932331393,-1.0177641568756723
279,0.3932710734745856,1.8863292584440536,-1.14464790040247
280,0.39493032829710095,1.8860288711852327,-1.5235049018076043
281,0.3979048224432524,1.8854866482404038,-1.8347046491457466
282,0.39858473670069594,1.885362033412073,-1.8744296259073667
283,0.39926465095813946,1.8852371680745366,-1.8093399778757968
284,0.3999369270088436,1.885113459093299,-1.65021374871788
285,0.40228197536703825,1.884680015613204,-1.2550369505507046
286,0.4046311328997565,1.8842428191502496,-1.0124082872475406
287,0.40504862595246227,1.8841648066395253,-0.978976753546881
288,0.40546611900516805,1.8840866993708933,-1.0269097177229838
289,0.4058828959789198,1.8840086315378286,-1.1572379848823953
290,0.407615638789068,1.883683052884329,-1.5385839301359858
291,0.4104497287938541,1.8831470104678547,-1.8270158696698469
292,0.4111337415703918,1.883016980114688,-1.8667619196395462
293,0.41181775434692947,1.8828866946939324,-1.8009878063398597
294,0.4124930919643119,1.8827578113400383,-1.6408948161025905
295,0.41484307969491807,1.8823073934767744,-1.2445419938546556
296,0.4171922697804274,1.8818541146610175,-1.0017230138402138
297,0.4176092745457937,1.8817733379911725,-0.9682920383974454
298,0.41802627931116004,1.8816924662661068,-1.0161944950271424
299,0.41844242434367196,1.8816116664962381,-1.1465176313941603
300,0.4201150832242294,1.8812859434384028,-1.5194298233360124
301,0.4230142718841494,1.8807177469710974,-1.8181243314345872
302,0.4236922313203734,1.8805842133347372,-1.857568044132929
303,0.42437019075659743,1.8804504278839376,-1.7923050202893849
304,0.4250401136706724,1.880317980911608,-1.633106831007752
305,0.4273758508900571,1.879854270091331,-1.2373191060303659
306,0.42972791041244957,1.8793842947253443,-0.9928090474724438
307,0.43014431633068323,1.8793007744750603,-0.9592511710443615
308,0.4305607222489169,1.879217159028904,-1.0069802900247018
309,0.4309761572663352,1.8791336436672668,-1.1371290042049087
310,0.43262220151821995,1.8788018057430642,-1.5062503267058875
311,0.4355654773579003,1.8782047384842895,-1.8101942205094281
312,0.43623955346033216,1.8780673264708265,-1.849209279588595
313,0.436913629562764,1.8779296645734054,-1.7840547188501228
314,0.4375799710442501,1.8777933366229784,-1.6252429006860831
315,0.4399047498309431,1.877315793156489,-1.2295201917302534
316,0.4422600368005106,1.8768289491898926,-0.9834131874401629
317,0.442706149733511,1.876736392403727,-0.9473846506051549
318,0.4431522626665114,1.8766437260062636,-0.9985851103052786
319,0.4435914566647325,1.8765523897230239,-1.1355840851019086
320,0.44533545735667734,1.8761886525950449,-1.5169544223977018
321,0.4481890105394358,1.875589886980731,-1.803592085229153
322,0.4488664706278514,1.875447075123437,-1.8423521225151047
