,time,theta,torque
0,0.0,1.9198621771937625,-135.0844310926892
1,0.0005110559410949815,1.9198621245897094,-81.34641918074135
2,0.0010001639144277142,1.919861975717042,-55.08236373711683
3,0.001645422599772258,1.9198616318908042,-36.12518018834166
4,0.002453588069903755,1.9198609646789022,-23.49380167198046
5,0.0034703759745221955,1.9198597514868179,-15.368689241965578
6,0.004435601274821267,1.9198582144847254,-11.226027439421882
7,0.005999047147754267,1.9198549285656186,-7.47573404601856
8,0.007918881654663599,1.919849546544794,-5.14557363092028
9,0.010358618109950028,1.919840564307514,-3.404763536976943
10,0.01262073879298532,1.919830092958559,-2.4218588665734906
11,0.014292667367393383,1.9198210281289518,-1.990168332648765
12,0.015126022133118274,1.919816089073556,-1.8155178357836328
13,0.015959376898843164,1.9198108700454577,-1.7820939911403497
14,0.016780600193402516,1.9198054530795579,-1.865889434615143
15,0.018512457053330093,1.9197931379281084,-1.9580739584692837
16,0.020272667704331775,1.9197793816586213,-2.008550301276352
17,0.021253060781377033,1.919771177848891,-2.039559102967408
18,0.022233453858422292,1.9197625862547523,-1.9422716456289086
19,0.023153374640633724,1.9197541719105768,-1.7542302388066495
20,0.024951782767076797,1.9197367357062236,-1.5198086937291724
21,0.028208580475778944,1.9197018364936191,-1.245497068460876
22,0.02892985891521056,1.9196935280104455,-1.4311669780451017
23,0.029610136987707338,1.9196854992258592,-1.5659344844907122
24,0.031114169893473785,1.9196670845839512,-1.753767038553765
25,0.032862390531274654,1.9196445312272923,-1.8831358408864431
26,0.03383392010515313,1.919631463623929,-1.9441846533448017
27,0.03480544967903161,1.9196180143079105,-1.869333015315832
28,0.035713737867908296,1.919605095143155,-1.6966596436197114
29,0.03749713236023096,1.91957875761886,-1.481293808831835
30,0.040708571640170166,1.9195280836224131,-1.2290366957931114
31,0.04143249600059995,1.9195160837162915,-1.4194344897109243
32,0.042117312440165394,1.919504536615021,-1.5580242337070416
33,0.04361782501871941,1.919478571033826,-1.748515479992749
34,0.04544852372327925,1.919445655372162,-1.8837415420982848
35,0.046456589579552066,1.9194269500938748,-1.9466120019263584
36,0.047464655435824885,1.919407832428336,-1.8693414315902612
37,0.04840236474648781,1.9193896787184757,-1.6932479922916974
38,0.05023031093372088,1.9193532638120536,-1.4760911840686068
39,0.05172259209750118,1.9193225292042964,-1.3552816019938778
40,0.05321487326128148,1.9192908892995075,-1.236154324036661
41,0.05376742743956949,1.9192789440788016,-1.2888794136156654
42,0.05429700251403448,1.9192673790560413,-1.4248604099102085
43,0.055506532788249865,1.9192405369676304,-1.6349672107768904
44,0.05801578631703358,1.919182951569618,-1.862359023602474
45,0.05902630636651249,1.919159036411407,-1.9302714485162458
46,0.060036826415991396,1.9191347049924727,-1.8561775756159629
47,0.060975598505608714,1.919111728004332,-1.6819543660853173
48,0.06280537693890993,1.9190659096678426,-1.4673730347477423
49,0.06430023261391288,1.9190274634496531,-1.3477148052924641
50,0.06579508828891582,1.918988104332689,-1.2291566098784044
51,0.06634803773141573,1.918973313919494,-1.282227368585228
52,0.06687768753514652,1.9189590295005434,-1.4187237869081988
53,0.06808730142659948,1.9189259764835098,-1.6297275071233048
54,0.07060623786385668,1.9188552238302172,-1.8591890957557269
55,0.07161410534439715,1.9188261865781084,-1.9274206812049637
56,0.07262197282493761,1.9187967329644975,-1.8539248999317182
57,0.07355852166260467,1.9187689901592824,-1.6802020764156385
58,0.07538707574806505,1.9187137866916253,-1.465424388279272
59,0.07688666364007765,1.9186674899422536,-1.3447871876300315
60,0.07838625153209025,1.91862026906079,-1.2250739662808605
61,0.07909635088231451,1.9185975859576911,-1.4117891866383077
62,0.07977738630626725,1.9185756363697,-1.550434847381213
63,0.08126690075294205,1.9185269643187128,-1.7404376684808864
64,0.08302058801914018,1.9184684886575105,-1.8703909536258083
65,0.08477427528533832,1.9184087450649423,-1.978740398987674
66,0.08655587473705732,1.918346750955639,-1.6787328503334218
67,0.08832642139755478,1.9182838424471818,-1.473915657183404
68,0.09058342174288753,1.9182017703774195,-1.280153623126198
69,0.09131304863694534,1.9181747877115882,-1.3456815679282021
70,0.09197621532536149,1.9181500715432207,-1.5005888939598362
71,0.09339326794530785,1.918096647253751,-1.707223647051612
72,0.09643424414506217,1.9179791872425884,-1.9244653565832988
73,0.097061425904422,1.9179544841444993,-1.9626132585912897
74,0.09768860766378183,1.9179296175381138,-1.9122107160998203
75,0.09831823146822911,1.9179044895800306,-1.7794226680771772
76,0.0997376597060524,1.9178472358708785,-1.5675725897715438
77,0.1022876604346073,1.9177422718656392,-1.3358103992137502
78,0.10304888191854333,1.9177104127915783,-1.2725710396737422
79,0.10346506017864308,1.91769289243765,-1.2365419058232858
80,0.10388123843874283,1.9176752997911575,-1.2758635239873082
81,0.10430187854314708,1.9176574450545099,-1.3889887086651915
82,0.10533250777316572,1.9176133860027258,-1.5869569933856589
83,0.10739990499319937,1.9175236668648803,-1.801713687518075
84,0.1088132424373202,1.9174613028540757,-1.8964438042117249
85,0.10954477510975473,1.917428695144576,-1.9433607911250819
86,0.11027630778218926,1.917395863159876,-1.8869258490651104
87,0.11099134251144399,1.9173635547668053,-1.74183560073924
88,0.11252899541929656,1.917293350179412,-1.5281827536657004
89,0.11528389738493991,1.9171650857759197,-1.2912643372247734
90,0.11586819364590568,1.917137471466705,-1.2421824935911017
91,0.11645248990687146,1.9171097134375907,-1.2975002803836315
92,0.1170052446249424,1.91708332149866,-1.4373333082344097
93,0.11823855681450156,1.9170239714149622,-1.6444187444669505
94,0.12075032041995246,1.9169011150209114,-1.8584550161970725
95,0.1217989641895152,1.9168490349364997,-1.924203101659321
96,0.12284760795907795,1.916796489907921,-1.8437075072717628
97,0.12381606890992466,1.916747549354429,-1.6630816351575122
98,0.12568022446856647,1.9166522271844757,-1.4452716195048583
99,0.1272000050154685,1.916573424036153,-1.3237110431195869
100,0.12871978556237051,1.9164936402825177,-1.2020244442336223
101,0.12943461285693256,1.9164557746600157,-1.3903276478711992
102,0.13012152894665632,1.9164191827899655,-1.530687363945454
103,0.13162459004602522,1.9163384145626485,-1.7231897002626053
104,0.1334291130671984,1.9162401755268315,-1.8585357455999432
105,0.13442433178421398,1.9161854011159294,-1.9216971308090607
106,0.13541955050122956,1.9161302037937755,-1.8456207603215677
107,0.13634556339139373,1.9160784646805775,-1.670578431266335
108,0.13815717083842996,1.915976184028934,-1.4529029236584183
109,0.13962977935906895,1.9158920071772265,-1.3326360487864173
110,0.14110238787970794,1.9158069004298746,-1.2151245241552595
111,0.1418122988590759,1.9157655398781503,-1.2823358848549335
112,0.14245888268599113,1.9157276804797208,-1.4398229415849275
113,0.14384759376518744,1.915645759780745,-1.65584946164701
114,0.14709629872766208,1.915450873975617,-1.9115369071424335
115,0.1483167238143889,1.9153764860752323,-1.8255268220968344
116,0.14942114878066043,1.915308614124158,-1.6333105257012022
117,0.15149781465868342,1.9151795649786851,-1.4093685382331478
118,0.15277976916483677,1.9150989688715696,-1.302986324724958
119,0.15348583894446602,1.9150542741705283,-1.242993095936915
120,0.15419190872409527,1.915009363147978,-1.3082091120057784
121,0.15483450487246755,1.9149683013572443,-1.4624454660638453
122,0.15621218176371454,1.9148796633198655,-1.6715938247523858
123,0.1591712402906235,1.9146864889454598,-1.8937724153005728
124,0.15984275294350314,1.9146421197446273,-1.9356811399487297
125,0.1605142655963828,1.914597553766241,-1.8824598414796436
126,0.16117957146144737,1.9145532055357415,-1.743916985868802
127,0.1626473187736677,1.9144546837325505,-1.5305080501895152
128,0.16527145735386686,1.9142761900788556,-1.2973219258553703
129,0.1660203208270836,1.9142246989076757,-1.2348378538500837
130,0.16669312113005483,1.9141782278965853,-1.2982760232386161
131,0.16731246759880067,1.9141352732877397,-1.4501405392463347
132,0.16864671794043337,1.914042163950738,-1.6591126284855977
133,0.17143069211815026,1.9138453640890511,-1.873964985467525
134,0.17225129430735742,1.9137867035860747,-1.9241479866978892
135,0.17307189649656457,1.9137277458454445,-1.8589884386201536
136,0.1738582639811164,1.9136709686545725,-1.7013579724005699
137,0.1754871661908143,1.9135524890466062,-1.483533737590871
138,0.1783911911566374,1.9133383469219378,-1.240332038332038
139,0.1788197714902127,1.913306426686808,-1.2039659355950152
140,0.17924835182378798,1.9132744248661124,-1.2455326180286541
141,0.17967804658303868,1.913242257894188,-1.36250364755901
142,0.1807180640204404,1.9131640623262027,-1.5636753827787035
143,0.182784514434031,1.9130072638433697,-1.7782103489089915
144,0.18418999980608064,1.9128995305429637,-1.8719805024246554
145,0.18491702216054798,1.9128434567768604,-1.9184055040101258
146,0.18564404451501532,1.9127871468522175,-1.8616862066089777
147,0.18635418978981919,1.9127319159455605,-1.7163787574148566
148,0.18788228679899294,1.9126123042310312,-1.5017752743153754
149,0.19060544174465405,1.912396554665686,-1.2663779222434235
150,0.19125754034790396,1.9123443962198188,-1.2117591396277312
151,0.19190963895115387,1.9122920465969115,-1.2735840708052526
152,0.1925119115123547,1.912243527013072,-1.4234278781733438
153,0.19382047164924202,1.9121375454026657,-1.6341045679142867
154,0.19658178783719005,1.911911369716373,-1.8567487024173632
155,0.19739234984218396,1.911844323827213,-1.9082816031081458
156,0.19820291184717787,1.9117769807512743,-1.8451501752671293
157,0.19898039765307074,1.9117121062437097,-1.689467780092175
158,0.20059697311244204,1.9115763399757526,-1.4728232236762069
159,0.20347490823899256,1.911331703746255,-1.2318111293205372
160,0.20396992477941264,1.9112892456878634,-1.1899262092912761
161,0.20446494131983273,1.911246676054192,-1.2376859182316131
162,0.20494731434213972,1.9112050863271608,-1.3660189797142925
163,0.20606941912818438,1.911107929174911,-1.572371115960497
164,0.20833302758854186,1.9109101860175146,-1.79115636320241
165,0.20951160633122248,1.910806300964281,-1.869542867513968
166,0.2101411375319192,1.9107505507915314,-1.9107027546412847
167,0.21077066873261593,1.9106946190322702,-1.861792154289774
168,0.21140015724608727,1.9106385093810005,-1.7295588481877004
169,0.21281689951199861,1.9105115624463518,-1.518783356766485
170,0.2153533183439387,1.9102819828061979,-1.288982190355539
171,0.21618078149957434,1.910206445663209,-1.2204400865515066
172,0.2165804371597728,1.9101698490142476,-1.185824786653077
173,0.21698009281997124,1.9101331786967488,-1.2242281533817072
174,0.21738577344131968,1.9100958801864005,-1.3358192454337074
175,0.21838984919270998,1.9100032381150833,-1.5350029052413667
176,0.22038792135704655,1.909817497583607,-1.7509988802774552
177,0.2217935017236503,1.909685727641886,-1.8475406191561619
178,0.2226089484398704,1.909608861551144,-1.9003171110976027
179,0.22342439515609047,1.9095316868601324,-1.8377695968811896
180,0.22420560998070083,1.909457462229259,-1.6821781848661648
181,0.22583284012405477,1.9093019449773758,-1.464637178273504
182,0.2287769878325636,1.909017432679896,-1.2132332552359464
183,0.2291653524247469,1.9089796004864483,-1.1793730434322611
184,0.2295537170169302,1.908941697819063,-1.2165936976730405
185,0.22994995208217484,1.9089029543681628,-1.3260505837956051
186,0.23094060889324414,1.9088057676674186,-1.5245245300731074
187,0.23291631377081606,1.9086105723184201,-1.74124156597374
188,0.2343224964991549,1.9084705293954776,-1.8387641431477848
189,0.23513773371989521,1.908388913960984,-1.8917184948161474
190,0.23595297094063553,1.9083069860574824,-1.829068787343978
191,0.23673350442214208,1.9082282526891803,-1.6733015371860271
192,0.23835681712531925,1.9080635880461694,-1.4561041736936249
193,0.2412715731684672,1.907764801485202,-1.209085709778696
194,0.24169754461126286,1.9077207995213177,-1.1723788172812664
195,0.24212351605405852,1.9076767116644437,-1.2134753259526574
196,0.24255029937869194,1.9076324536013185,-1.330254402566871
197,0.24358454393947385,1.9075248428738742,-1.5320084007474237
198,0.2456455032271054,1.9073088915610665,-1.7485933924016699
199,0.24703569654782215,1.907162084459023,-1.8429878318472168
200,0.247754980245054,1.9070857656768023,-1.8897012007708665
201,0.24847426394228583,1.9070092004453412,-1.8337797709865071
202,0.24917678547061545,1.9069341814106495,-1.6893274460872387
203,0.25069307969925186,1.9067714606214397,-1.4744437194417308
204,0.25339210091369857,1.9064790965874787,-1.2389769058117703
205,0.25405524849935485,1.9064067291782134,-1.183287405313891
206,0.2547183960850111,1.9063341509150644,-1.2465123582567983
207,0.2553277318652564,1.9062672760838923,-1.3987961544843177
208,0.2566367289789369,1.906123010223937,-1.6094198649549116
209,0.2593939819497877,1.9058164343063524,-1.8302110301427654
210,0.26019650497809077,1.9057265144574982,-1.8808309778314631
211,0.26099902800639385,1.9056362838458325,-1.8174409080603644
212,0.2617685860125271,1.9055494674974545,-1.661733827364682
213,0.26337088758391475,1.905367787994922,-1.4440302769738649
214,0.266202528451234,1.9050436776348458,-1.205654127035069
215,0.2666970774717984,1.9049866724239128,-1.164137197828806
216,0.2671916264923628,1.9049295484089293,-1.2126466391665551
217,0.26767269424854495,1.9048738675306933,-1.3421757015186575
218,0.26878555027954837,1.9047446293884536,-1.5487851336284675
219,0.2709987861075682,1.9044858095967434,-1.7621818068742696
220,0.27228902147667816,1.9043338247906736,-1.8452129853552408
221,0.2729658185800021,1.9042537755562294,-1.8880627803991996
222,0.273642615683326,1.9041735023954938,-1.8344249314509273
223,0.27431030345436686,1.9040940900934138,-1.6947482934544917
224,0.27578067102138504,1.9039184403544767,-1.4794339775692629
225,0.278415086212145,1.9036010819745501,-1.241409648160299
226,0.2791474532671263,1.9035122507445374,-1.1790056259148014
227,0.2798064978641114,1.9034320874945923,-1.2411619080418794
228,0.28041362119546454,1.9033580505165764,-1.3926742574108792
229,0.28171383018160756,1.903198882805429,-1.6012704952806491
230,0.2844168388943519,1.9028653189042297,-1.8158281364258475
231,0.2853229080581686,1.902752697643664,-1.8717532327562287
232,0.28622897722198537,1.9026396700258683,-1.800139579429478
233,0.2870812343285083,1.9025329839936176,-1.632279372466922
234,0.2887966474451797,1.9023171552890294,-1.4108073071993534
235,0.2919082594023499,1.90192192879343,-1.148849622072132
236,0.29264274617411046,1.9018279336013668,-1.217442216587747
237,0.29330456126357035,1.901743008136938,-1.3788652399363692
238,0.29470264502067334,1.90156288461882,-1.5948114250498318
239,0.29769849141697324,1.9011736219729236,-1.834037553616516
240,0.298878161195041,1.9010191093819968,-1.7480379383057707
241,0.29994429968430303,1.9008788665851886,-1.5564956473875926
242,0.30193438776720494,1.9006155574813381,-1.3365471889695075
243,0.3041900692325686,1.900314698430616,-1.1559302033329295
244,0.30489619890928255,1.9002199890783402,-1.2250616583827405
245,0.305537129663278,1.9001338067236657,-1.385380111605986
246,0.3068771865194782,1.8999529466263854,-1.596919549856882
247,0.3096988646692092,1.8995691511278538,-1.8137012914498136
248,0.3104992998843826,1.8994595443346853,-1.8627372810824947
249,0.31129973509955594,1.899349612600424,-1.7982625781207315
250,0.3120667702396317,1.8992439629208548,-1.64171786691125
251,0.31366656618938404,1.8990226488235828,-1.4215123969076842
252,0.31650699640023156,1.8986264977930465,-1.1772122465640524
253,0.3169991647029133,1.8985574377882526,-1.1350074238072558
254,0.317491333005595,1.898488254192422,-1.1827606234001382
255,0.31796975442092534,1.898420884468617,-1.311891941567469
256,0.31907508083244535,1.898264788985862,-1.518227660332411
257,0.32126826517292173,1.897953215306073,-1.7319446801872773
258,0.32254704350818675,1.8977704095356964,-1.8153552487477038
259,0.3232176653696916,1.8976742067030017,-1.8583059060428224
260,0.32388828723119645,1.8975777731135743,-1.805106544233156
261,0.32454958793336086,1.8974824537788555,-1.6659491948457308
262,0.32600860143106386,1.8972713580052094,-1.4503653944688852
263,0.32861386467247894,1.8968916942218423,-1.213430402320989
264,0.3293399695942375,1.8967852561012513,-1.151732575078842
265,0.33006607451599607,1.8966785459972981,-1.220590087690297
266,0.3307196403663686,1.896582263682366,-1.3810973045010482
267,0.33208191939765763,1.8963808655071068,-1.5906779601841978
268,0.33499714649451134,1.8959466552864679,-1.8090736560615224
269,0.33571206301777723,1.8958394993676058,-1.8531061628484018
270,0.3364269795410431,1.8957320783362481,-1.7951089671224454
271,0.33712425655774597,1.8956270522254517,-1.6490038970524623
272,0.338630250573612,1.8953993527750919,-1.4304460032655186
273,0.3413026914497513,1.8949923877277681,-1.1916804155715395
274,0.3419560390070814,1.8948923286892227,-1.1361384498467146
275,0.3426093865644115,1.8947920470797903,-1.1988218114738525
276,0.34320991901094433,1.8946996755923442,-1.3513361834952116
277,0.3444868145588675,1.8945026429113165,-1.5604625570880364
278,0.34711561137155034,1.8940943204799867,-1.7730165338500612
279,0.3480079986835357,1.8939548866193265,-1.8278696499810891
280,0.34850874709533053,1.893876462866835,-1.8593254211284929
281,0.34900949550712534,1.8937979076783993,-1.8183378905761667
282,0.3495286862303894,1.8937163205001697,-1.702853128464363
283,0.350783659005259,1.8935185262106025,-1.4953268914541606
284,0.353073330126059,1.8931555232411077,-1.2622753533915398
285,0.35405999502398317,1.8929982480539653,-1.178121062649605
286,0.3546317969189759,1.892906867824522,-1.1276680130069885
287,0.3552035988139686,1.892815315394152,-1.181416460918663
288,0.3557430335887754,1.8927287874098708,-1.3215905641443362
289,0.35693404910334176,1.8925371993908235,-1.5280593736810744
290,0.35932955295937274,1.892149588985025,-1.7387200209448677
291,0.3604953162405451,1.8919598629714247,-1.8119536953403614
292,0.36166107952171744,1.8917694180476816,-1.721271767702408
293,0.3627142204028483,1.8915967530855542,-1.5270239673413968
294,0.36467977246798206,1.8912729238636603,-1.3030921189561773
295,0.36683830189681993,1.8909149393589515,-1.128273523562359
296,0.3673260031021315,1.8908337130498634,-1.0867535000569495
297,0.36781370430744303,1.8907523602982428,-1.1347855268239175
298,0.3682874838450953,1.89067320867947,-1.2646882773778498
299,0.3693866443411482,1.8904891183445054,-1.474529708396045
300,0.3715653452935144,1.8901223222908068,-1.6933415551143967
301,0.3728246861173544,1.8899091515163222,-1.7784840709539842
302,0.3734854842419415,1.8897969586039605,-1.8221483769472147
303,0.3741462823665286,1.8896845325848195,-1.7703001939871197
304,0.3747979550652986,1.8895734307351975,-1.632620594645001
305,0.3762414570986476,1.889326523997839,-1.4174654758343892
306,0.3788155583295966,1.8888834654670021,-1.1813603274141347
307,0.379535387934725,1.8887589323619418,-1.12022771768462
308,0.3799293000976321,1.8886906665857535,-1.085435801828071
309,0.38032321226053917,1.888622317626181,-1.1236102895550328
310,0.38072166819733017,1.8885530956125376,-1.235763830095224
311,0.38170958337916466,1.8883811020651098,-1.4378860799496596
312,0.38364112818340407,1.8880433114668227,-1.653073265656016
313,0.38516493579802835,1.8877754119018995,-1.7586356605606555
314,0.38593634599004706,1.8876393147557284,-1.8087788923277879
315,0.38670775618206576,1.887502897415408,-1.748034633998611
316,0.3874487747734434,1.887371552914419,-1.5956210503683426
317,0.38901204141199947,1.8870934959502441,-1.3761798857254797
318,0.391784102307231,1.8865971918941207,-1.1333337155001175
319,0.39235351472592983,1.8864947320536696,-1.0843237405427775
320,0.3929229271446287,1.8863920971040813,-1.139445185075979
321,0.39345955228192264,1.8862952116426852,-1.281721259033478
322,0.39464216304298855,1.8860811466934109,-1.4919338461726814
