,time,theta,torque
0,0.0,1.9198621771937625,-135.0844310926892
1,0.0005108380889566358,1.9198621246345478,-81.36310864352807
2,0.000999971759953389,1.9198619757944513,-55.09656607381521
3,0.001647407282504094,1.919861630574537,-36.10456543836855
4,0.002461602329294751,1.9198609567449603,-23.45657936250591
5,0.003495678662671489,1.9198597159857127,-15.072373610618957
6,0.0048055472803439385,1.9198575259001942,-9.61269019635013
7,0.006456627199859729,1.9198537805810871,-6.117246897281028
8,0.008517545882580975,1.9198475645301456,-3.9204250300964145
9,0.011053396824378378,1.9198375676042025,-2.56558500333243
10,0.014119062492807241,1.9198220218005482,-1.7424391251102183
11,0.01501216392026548,1.919816780390814,-1.586992850486393
12,0.015498645046949117,1.9198137900650691,-1.512800813723909
13,0.015985126173632753,1.9198107043269215,-1.5268097049598797
14,0.016487376228851065,1.919807418459874,-1.6264124952830434
15,0.01815898920900661,1.9197957496592999,-1.8514903417444464
16,0.021402003001241225,1.9197698975886281,-2.0371006835813192
17,0.02500782371113811,1.9197361713948322,-2.090484478094575
18,0.02987381981317401,1.9196823369031162,-2.0903741888328837
19,0.03604772095321978,1.9196002607592655,-2.085801802512327
20,0.04014877341589847,1.9195372173751555,-2.1023607654926533
21,0.044249825878577155,1.9194673613843884,-2.1361476186475246
22,0.05114577150314451,1.9193345165496516,-1.522737934072147
23,0.0556031807426513,1.9192383664492954,-1.1747738721746905
24,0.05984034586311298,1.9191394684813883,-1.0766708917654055
25,0.06593614974417882,1.9189843430669173,-1.0426957657715508
26,0.07280892961835707,1.9187912235994644,-0.9841892914996002
27,0.07632674083257036,1.9186848845000601,-0.9258278249721974
28,0.0784046568952525,1.9186196837461376,-0.8835879724939237
29,0.07918136942637273,1.9185948562581254,-1.1474541664782967
30,0.07995808195749296,1.918569780557831,-1.3793024254907258
31,0.08199585848018918,1.9185028115616227,-1.7482109897952025
32,0.08462616115845374,1.9184138399820851,-1.955773171670318
33,0.08807302690650255,1.9182929251471668,-2.0471727917640767
34,0.09243138912055163,1.9181330017875038,-2.0669487047001365
35,0.09799124141763635,1.9179175601618899,-2.0674840513856547
36,0.10570537103126133,1.9175973368944539,-2.106989818168848
37,0.11379067797203542,1.9172350039741781,-1.4237969314214942
38,0.11814207437655848,1.9170286375116203,-1.1249378595759945
39,0.12249347078108154,1.916814286891823,-1.040655681404962
40,0.12874375593538434,1.9164923740510775,-1.0168860834225353
41,0.13584100423343962,1.9161067013635318,-0.9587379476629369
42,0.13949769574166515,1.9158995952509648,-0.8968598384576641
43,0.1404433353421674,1.9158451042099296,-0.8777052168909696
44,0.14099419688858536,1.9158131848070308,-0.8660869429992936
45,0.1415450584350033,1.9157811351365328,-0.9578192032901052
46,0.14206748449666348,1.915750619461789,-1.1429189002824973
47,0.14378955978012814,1.9156491998408054,-1.5754106386845734
48,0.1468054684179925,1.9154685059419194,-1.9014046958689614
49,0.14971101380696053,1.9152907132430375,-2.0094162940582754
50,0.15388703582424512,1.915028781762255,-2.04639956131427
51,0.15896742959682975,1.9146999165269771,-2.046531209586258
52,0.16579880075388476,1.914239956051358,-2.066053252624555
53,0.1688341602349391,1.9140290207593447,-2.090066229303026
54,0.17186951971599346,1.9138140315901409,-2.1217121329572017
55,0.17327281073591871,1.9137132654532718,-1.9498113840405689
56,0.17454489169659146,1.9136211693094032,-1.6724386087756142
57,0.1776229304610996,1.913395362113229,-1.2769004145136802
58,0.1825951338981392,1.9130217128839748,-1.0456618083665814
59,0.18771392172253396,1.912625534261371,-0.9984908206240455
60,0.19421293269991846,1.9121056091819089,-0.9758292047263347
61,0.20242651604093562,1.9114212572488085,-0.8681167004870064
62,0.20412611430701227,1.9112758260039155,-0.8322320724566121
63,0.204886810391827,1.9112103087339831,-1.0911281092059546
64,0.2056475064766417,1.9111445277376233,-1.3224039840861879
65,0.20771701829397946,1.9109642309092174,-1.7050519979557512
66,0.21033113407917045,1.9107336893656708,-1.9131999769010728
67,0.2137440299115176,1.910427987971134,-2.0039531031972504
68,0.21805476390338413,1.9100342068686562,-2.023008677882753
69,0.2235626713204615,1.9095185696456716,-2.022407691043392
70,0.2312216146488393,1.908778116458105,-2.059973258845239
71,0.23922115106440797,1.9079754052364464,-1.3746412838511817
72,0.24364292308595864,1.9075187535385714,-1.0653988221213304
73,0.24793930943307385,1.9070661679733223,-0.9801962872822131
74,0.2542780062324871,1.9063823729579306,-0.955684295780713
75,0.261356243147776,1.9055960208201967,-0.897881817851441
76,0.26495447452225274,1.9051870093238912,-0.8368709370541286
77,0.2659921173884302,1.9050678950879179,-0.8157294228108798
78,0.2670297602546077,1.9049482582212118,-0.7934270585982232
79,0.26782178729847544,1.904856588012531,-1.063133360510394
80,0.2686138143423432,1.904764612739046,-1.3024367825457939
81,0.2707792206859194,1.9045115926693623,-1.692076471542813
82,0.2733923207342399,1.9042032153377308,-1.8901068372807972
83,0.2768397283769362,1.9037912690643604,-1.9758238551777694
84,0.2811778546220107,1.903264596284333,-1.9922942429086947
85,0.2867328026998623,1.9025766443692436,-1.9918433713538728
86,0.2945516523957284,1.9015823849160696,-2.033163961238228
87,0.30237148819261706,1.9005574578721758,-1.3573989535174993
88,0.30680098419016805,1.8999632555638915,-1.038313907041859
89,0.3111141808820349,1.8993751255529152,-0.9474485231118465
90,0.3173842671836596,1.8985033148470767,-0.9165954004639055
91,0.32442634542267806,1.8975002348804801,-0.8530603618008705
92,0.3278955565811997,1.896996721972759,-0.7922107166625568
93,0.328917587820008,1.8968472051938128,-0.7709719644637051
94,0.3295009006299952,1.8967616287604239,-0.7583179826256783
95,0.3300842134399824,1.8966758767743577,-0.8553743354417922
96,0.33062886204850805,1.8965956501950691,-1.0486761043409196
97,0.332379133859188,1.8963367980890935,-1.492539870529744
98,0.33535962059528224,1.8958923586459355,-1.815014914090571
99,0.3381628729453035,1.8954701442841604,-1.919823621761457
100,0.34229138432035144,1.8948408847093081,-1.955981554522222
101,0.3472746907713099,1.8940694951673123,-1.954261805077252
102,0.354007738140776,1.8930065906932139,-1.9705216546612188
103,0.35773389693796714,1.8924081149911676,-1.9996527172208156
104,0.3594927703372077,1.8921230688889235,-2.017992232788453
105,0.3612516437364483,1.891836387471884,-2.0382582626501473
106,0.3630820422181365,1.8915363093761046,-1.6370281576591987
107,0.3649124406998247,1.8912344556029166,-1.34087169990099
108,0.36903469434399255,1.890548133847057,-1.0132588235026452
109,0.37399338325318454,1.8897105670709462,-0.8981442197222181
110,0.37983088088673017,1.8887077306289857,-0.8691821562748544
111,0.38697549637666434,1.8874554749569425,-0.8071559586251102
112,0.39040613497476484,1.8868444184934738,-0.7478420144445233
113,0.3924786354834845,1.8864721944106146,-0.7041009778808165
114,0.3930332280831411,1.8863721954270962,-0.7964126662835547
115,0.39355440983736634,1.886278069317034,-0.9829547262643975
116,0.3952502848269852,1.8859707758655215,-1.4278837547400847
117,0.3981533504674275,1.8854411270149039,-1.7611988436377224
118,0.4009503991348724,1.8849265016108867,-1.8732914376113363
119,0.40496865673858107,1.8841797569769996,-1.912375145729737
120,0.409869450474985,1.8832571210527205,-1.91130054708883
121,0.4164050436221751,1.8820063466938435,-1.9248597581689257
122,0.420374790234751,1.8812352324600532,-1.9545757698434856
123,0.42219335199422187,1.8808791017007218,-1.9733956572317928
124,0.42401191375369274,1.8805211600267313,-1.9943351527002349
125,0.4258406722003969,1.88015938402257,-1.5910769027298994
126,0.42766943064710106,1.879795774423882,-1.2927275553924815
127,0.43176356748651257,1.8789750896496498,-0.9622424170621812
128,0.4367552776270437,1.877962026151569,-0.8431141107618849
129,0.4425936941267208,1.876759734338465,-0.8131148890085048
130,0.4497418817246445,1.8752621594650227,-0.7506073051123057
131,0.4531142382306056,1.874545856492784,-0.692050885845421
132,0.45517312522652886,1.8741054556325223,-0.6484226654134067
133,0.4558258117292396,1.8739653561408827,-0.7567974180986697
134,0.4564197303258912,1.873837666917666,-0.9664530022753341
135,0.45826870096072436,1.8734389019848383,-1.4271488933683596
136,0.461265000236607,1.8727886874154769,-1.7368262171479507
137,0.46406755581430786,1.8721760302978705,-1.834674904319319
138,0.468206458689386,1.8712633072970892,-1.8661406355680945
139,0.4731956742039308,1.870150497723239,-1.86279244706423
140,0.48000394407039415,1.8686097905455117,-1.8804255404704682
141,0.4834876133442475,1.867811546004492,-1.9085964763866876
142,0.48514898309217974,1.867428504075267,-1.9261353624272688
143,0.486810352840112,1.867043940285288,-1.9454310639009498
144,0.4886443182924612,1.8666176583802037,-1.5388882634748873
145,0.4904782837448104,1.8661895231444925,-1.2376767077803634
146,0.49455983096472983,1.8652300463568652,-0.9042638006313917
147,0.4995864107997192,1.8640358185388528,-0.7815482957930381
148,0.5054348381612666,1.8626288602693049,-0.7500618034563407
149,0.5125902186120805,1.8608819756209438,-0.6859811952622648
150,0.5158971198553489,1.8600651763795584,-0.6278691787493424
151,0.5179388916777753,1.8595578794535612,-0.5842303465167262
152,0.5186071797000381,1.8593913429985345,-0.695206362105459
153,0.519210589844186,1.859240764756017,-0.9085576663627264
154,0.5210831363275523,1.8587722156273325,-1.377931635911252
155,0.5240469254066173,1.8580267121562146,-1.6857193558258794
156,0.5268619510594914,1.8573142044361861,-1.783665671432084
157,0.5309594361750102,1.8562694069134582,-1.8138162753860594
158,0.5359307649094613,1.854989584397743,-1.8094131460814655
159,0.5427197710452785,1.853220273220718,-1.8259075300364511
160,0.546108244402767,1.8523279165587578,-1.852951930046037
161,0.5494967177602554,1.8514294067746508,-1.8899752594281325
162,0.5512349530382864,1.850966102532676,-1.4966229451435382
163,0.5529731883163174,1.850501185843206,-1.1995852684119195
164,0.5568263077010005,1.8494648756061687,-0.8580708428205105
165,0.5619385016786961,1.8480777680094362,-0.7159461842912714
166,0.5676815604383503,1.8465030156971087,-0.6825427820596721
167,0.5747648226607819,1.8445369205632125,-0.6246953348148834
168,0.5779792982905869,1.8436360384596382,-0.5712524627085382
169,0.581193773920392,1.8427297879886264,-0.5031027895991504
170,0.5819193272566131,1.8425244937008154,-0.7587672441742811
171,0.5825917163408726,1.8423339991171417,-0.9768262600399672
172,0.5846052622087486,1.8417621448632535,-1.4061453484562416
173,0.5877546466310879,1.8408635199231305,-1.6660030822233014
174,0.5908870094681241,1.8399647009350097,-1.7415343165488566
175,0.5951858333706677,1.8387230080542947,-1.755688488785187
176,0.6005286924765235,1.8371666639340485,-1.751531538979956
177,0.6081906468115459,1.8349096726738514,-1.7882134793525284
178,0.6156163019781881,1.8326943434631648,-1.106889366440939
179,0.6202744512054653,1.8312907618353418,-0.7382561246056681
180,0.6246772708959615,1.8299543566898777,-0.6365701929861913
181,0.6311306988742653,1.827978536995267,-0.60390030279368
182,0.6382171352560317,1.8257858993804645,-0.5406861587168034
183,0.6414381390878184,1.8247813983352097,-0.4835815813115683
184,0.6427380428351155,1.8243746264972067,-0.45600583690116864
185,0.6434342926612624,1.8241564265452028,-0.4403507750774294
186,0.643807855065231,1.8240392609635143,-0.4317216471344971
187,0.6441814174691995,1.8239220300290997,-0.49428782021794426
188,0.6445535125267291,1.8238051946562999,-0.6332461219398963
189,0.6459112086259434,1.823378338378692,-1.0554827779542801
190,0.6486117191195018,1.8225267516626484,-1.483203064731986
191,0.6512431919718086,1.821693681978693,-1.6340226281390267
192,0.6548298455815993,1.8205530825953395,-1.6920687401926495
193,0.6592827123770572,1.819128830103576,-1.6946914417888235
194,0.6650961850917534,1.8172558759904471,-1.6942533359695733
195,0.6692765487176058,1.815899713375665,-1.7148162553110746
196,0.6734569123434582,1.8145358101428013,-1.7539644373662422
197,0.680021723289054,1.8123785098910046,-1.1332278163459002
198,0.6846243986836258,1.810854891073125,-0.7253852012905506
199,0.689025422518211,1.8093895742580257,-0.5982741416991355
200,0.6951484377250228,1.8073373600800413,-0.5382345985676331
201,0.7020221631462873,1.805015024817604,-0.45327102815177484
202,0.7049532301847661,1.8040188762727667,-0.3950175653733732
203,0.7068142561939313,1.803384589641211,-0.3522702177945027
204,0.7074555147834996,1.8031657095172784,-0.5803184410261447
205,0.7080771176104508,1.802953381265094,-0.7892900282367102
206,0.7099468819825914,1.8023137736091175,-1.2340631315876973
207,0.7128953188883769,1.8013023531521117,-1.5218945929353556
208,0.7157058597136339,1.8003350458124803,-1.611479786306893
209,0.7197997192564455,1.7989205408119655,-1.6363602422438523
210,0.7247671023241732,1.797195538926189,-1.6308868580993618
211,0.7316241160700958,1.7947989585357382,-1.6509066808648427
212,0.7347582135875512,1.7936977233221214,-1.6781180340069517
213,0.7378923111050066,1.7925928742570874,-1.7141005366384086
214,0.7396462654327182,1.7919729975958685,-1.3100926950467888
215,0.7414002197604297,1.7913520074542062,-1.0034963918813764
216,0.7452104605022328,1.789999180904246,-0.6522154953946732
217,0.7505014341480142,1.788112084158518,-0.4953790868693151
218,0.7562868844340465,1.7860374623520152,-0.45771901813704124
219,0.7634307514451424,1.7834599777635383,-0.39490860426474866
220,0.7664595900627728,1.7823620317639521,-0.34262412085533006
221,0.7694884286804031,1.781261068609459,-0.27699250737242814
222,0.7700310577682603,1.7810635104127683,-0.3670785102605712
223,0.7705315073955283,1.7808812240512102,-0.5499257185520613
224,0.7721570182898191,1.7802885807820685,-1.0225692600384133
225,0.7749012992725678,1.7792861193658207,-1.3985482728405776
226,0.7775355436262584,1.778321597104245,-1.5266652371619196
227,0.7812481486661726,1.7769585273858806,-1.5737270538986032
228,0.7857983690840408,1.7752820974210075,-1.573035526327872
229,0.791812778825398,1.7730565472632032,-1.5778948807425561
230,0.79557818372764,1.7716577132813898,-1.6011594404879492
231,0.799343588629882,1.7702547242772804,-1.6396026288896743
232,0.80526734091604,1.7680392816514174,-1.0525060151928851
233,0.8096749726533633,1.7663844383857041,-0.6130722163087708
234,0.8140826043906866,1.7647242323153949,-0.46206559415164977
235,0.820163170459752,1.7624252743678828,-0.3948322965809255
236,0.8269254542155006,1.759857134261982,-0.3156520964776711
237,0.8297296253667682,1.7587887317531476,-0.2625426216713199
238,0.8309209121521709,1.7583342433895812,-0.23650680439369517
239,0.8321121989375736,1.7578793985893937,-0.20879694828375261
240,0.8326597220606304,1.7576702299478761,-0.2995778740164833
241,0.833161857916574,1.757478334799437,-0.48331795631312335
242,0.8347777688183284,1.756860377092667,-0.9583800444251347
243,0.8373928754512955,1.755858943207783,-1.3328692803526603
244,0.8400128622851905,1.754853968455437,-1.4688862815966173
245,0.8436439938040592,1.753458409276776,-1.5189802786488185
246,0.8481238226602693,1.7517323716299655,-1.518428616237274
247,0.854031482372586,1.7494491037025552,-1.520067705916278
248,0.8580925693068879,1.7478749443482027,-1.5432875093616583
249,0.861900306359012,1.7463956732195698,-1.581973985973086
250,0.8678815286599633,1.744065685834151,-0.986626235222052
251,0.8745857823764043,1.7414450763184421,-0.4421978553336989
252,0.8838333488159695,1.7378153065075623,-0.3090626951701387
253,0.8878211599220875,1.7362448471303382,-0.26963324488234214
254,0.8918089710282056,1.734671340246779,-0.20539357127134114
255,0.8940537653495614,1.7337842727414794,-0.1578978902726122
256,0.8947513423416016,1.7335084223966402,-0.1417099106063511
257,0.8951200611717695,1.7333625795123575,-0.13292251372400807
258,0.8954887800019373,1.7332167114805228,-0.19425171631295107
259,0.8958512307270549,1.7330732986931894,-0.3302502095389754
260,0.8971878511155739,1.7325442220971212,-0.761393898184312
261,0.899995374147259,1.731431852900987,-1.2468514204759966
262,0.9026962434915868,1.7303603967818528,-1.4068075131072184
263,0.9061513643692954,1.7289878288142706,-1.4637456564189397
264,0.9105318135137503,1.7272446625825808,-1.4668160286976712
265,0.916211273126473,1.7249796675416962,-1.4668063761742522
266,0.9202718779331487,1.723356963776155,-1.487687666385496
267,0.9243324827398244,1.721731554471982,-1.527540600506774
268,0.9306549221832431,1.719195493796552,-0.9053392833292019
269,0.9351464381771637,1.7173900442066612,-0.4692969831898934
270,0.9396379541710843,1.7155815014053262,-0.32191653805506265
271,0.9458879619451843,1.713059855354989,-0.25809469014615494
272,0.9527760352127197,1.7102741575359035,-0.17820333075038064
273,0.9555346341786011,1.7091566127681703,-0.12527952375248988
274,0.9567724603405428,1.7086548045595995,-0.09787723927674388
275,0.9580102865024844,1.7081527819502165,-0.06865126618247769
276,0.9586180165949773,1.7079062279539197,-0.27369064703846024
277,0.9591692668428172,1.7076825432572236,-0.46583524178926006
278,0.9608696788222703,1.7069922901469554,-0.9284190548689181
279,0.9635284233381457,1.7059122213666063,-1.2623082306909432
280,0.96608527713604,1.704872634913325,-1.3785101538204212
281,0.9698586339942902,1.703336822671716,-1.421727961481443
282,0.9744023631063193,1.7014849434906323,-1.4195052025048605
283,0.9805056045357432,1.6989932059158335,-1.4265499044674195
284,0.9840528858237679,1.6975427721447265,-1.4506528592060983
285,0.9876001671117927,1.696090740417064,-1.489085238220365
286,0.9932100147379251,1.6937912044179106,-0.9138663600190521
287,0.9974844784079298,1.6920364410612923,-0.4515488982355386
288,1.0017589420779345,1.6902794438325301,-0.28387548260277
289,1.0080547595566998,1.687687559645853,-0.2080590842809678
290,1.0147458275985155,1.6849277749973728,-0.13554381386393416
291,1.0174355066517955,1.6838169060542854,-0.0874915290886556
292,1.0201251857050755,1.6827051891563516,-0.029034870883461236
293,1.020670276064433,1.6824797856025984,-0.0159593536191509
294,1.0209051863041485,1.6823826357884923,-0.010221213027609055
295,1.021140096543864,1.6822854795417868,-0.04949990351903726
296,1.0213820155246325,1.6821854178372337,-0.14169192426213764
297,1.0224253145550255,1.6817538139811212,-0.5026214993577248
298,1.0250952383406449,1.6806487133019743,-1.0809818170138374
299,1.0284873710354325,1.679243493952823,-1.317509049075253
300,1.0316094952731576,1.6779489540571872,-1.3737928659708545
301,1.0360325114134632,1.6761131010187384,-1.3806110371341862
302,1.0414902791174563,1.673844666571626,-1.3810517389644839
303,1.0456621436961435,1.672108403139105,-1.4023272748877653
304,1.0498340082748308,1.6703701558519883,-1.4442737690856478
305,1.0562895042462268,1.6676765055751603,-0.8080118706719337
306,1.0624128749829258,1.6651170529346397,-0.2918460972936091
307,1.0684902521789004,1.662572594375557,-0.1764681049817676
308,1.0747310862508705,1.6599552991366593,-0.12281455400657512
309,1.082390739647387,1.6567368472419965,-0.0
310,1.0837651074441708,1.6561586435468272,-0.0
311,1.0845757515119507,1.6558174984684726,-0.24235773148129391
312,1.085337330070949,1.6554969320900996,-0.4948830042815887
313,1.087431606574528,1.6546150532808144,-0.9803077588063087
314,1.090351882344176,1.6533844991067956,-1.2460340407303117
315,1.0931251623699376,1.6522149606567142,-1.3274896942197694
316,1.0972318585459946,1.6504814334909086,-1.3494719009168228
317,1.102173321099397,1.6483928812011361,-1.3461530235019996
318,1.109144544042264,1.6454414605019572,-1.3762235021844476
319,1.1119861223099092,1.6442367305384427,-1.4060216128794136
320,1.1148277005775544,1.6430310162687995,-1.44338615101526
321,1.116605165527274,1.6422763144750911,-1.02294239222407
322,1.1183826304769935,1.6415212237867403,-0.7007746670823781
323,1.1221044738966472,1.6399388689695307,-0.3342982982220808
324,1.1278808029717458,1.6374796191904983,-0.1471353449376748
