,time,theta,torque
0,0.0,1.9198621771937625,-135.0844310926892
1,0.0004963018932527537,1.9198621275831962,-84.1030961138951
2,0.0009845032554459511,1.9198619819771305,-58.09217122361471
3,0.0016213461270975463,1.919861647732251,-39.4327338044061
4,0.0024142658731286814,1.9198610032321117,-26.979972703153614
5,0.003406290743276966,1.9198598402482117,-18.722634353633136
6,0.004638224176730732,1.9198578441695378,-13.354626786745937
7,0.0061540806115140045,1.9198545490634464,-9.940723480194425
8,0.007997604658581813,1.9198492941602066,-7.832652834980888
9,0.010205159566692825,1.9198411999737786,-6.5880600553458475
10,0.012731913314294817,1.919829525163812,-5.924896880962806
11,0.014387775346134887,1.9198204786032584,-5.719649873342876
12,0.016043637377974956,1.9198103267635667,-5.62158736884531
13,0.018330796548304558,1.9197944864890801,-5.572260787608325
14,0.02066744229005194,1.9197761248657543,-5.572849800829202
15,0.024187309423590722,1.9197443070638096,-5.572642738976514
16,0.02905340396984441,1.9196920837999032,-5.571049821923209
17,0.03246078758089377,1.9196498215188778,-5.570976179640071
18,0.03576364442341841,1.9196043756170502,-5.571094039218058
19,0.0391326247997671,1.9195534726933243,-5.5710604493733085
20,0.04268698876349623,1.9194947861431573,-5.570759435292001
21,0.04637055065840297,1.9194285626934753,-5.570281897862168
22,0.050005434376997414,1.9193578168462793,-5.569786411803498
23,0.05349652191015828,1.9192848160845788,-5.56936410555012
24,0.056827543765447484,1.919210540454874,-5.569349856406361
25,0.06011947837541585,1.9191326964681996,-5.569277057183541
26,0.06345556080417207,1.9190492997212887,-5.569128511464436
27,0.06690203484216954,1.9189583701064326,-5.568766966878391
28,0.07038350824049402,1.9188615846479196,-5.568353056956056
29,0.07381948259722852,1.9187611957769897,-5.568031953169323
30,0.07719935681360156,1.918657719754555,-5.567724368992962
31,0.08052310384638547,1.918551383149015,-5.5675110736887845
32,0.08382576660975954,1.9184412158099295,-5.567267556705888
33,0.08713068275524859,1.918326469731341,-5.567014728851478
34,0.09044738982855897,1.9182067766545225,-5.56670062730745
35,0.09375450695141138,1.9180828950010356,-5.566442308053146
36,0.09707257194575702,1.917954043651681,-5.566171300516618
37,0.10041077351290009,1.9178197921269302,-5.565790370829783
38,0.1037209379672146,1.917682084558165,-5.565467783362338
39,0.10699584681975889,1.9175413423857985,-5.565192412603689
40,0.1102545973570131,1.9173968407777773,-5.564873998974764
41,0.11349443782718956,1.917248763615837,-5.564612904105363
42,0.11673017738874102,1.917096471002153,-5.564340369785795
43,0.11997347712286839,1.916939396762141,-5.563964263102349
44,0.12319664622580477,1.9167788972402071,-5.563618479418984
45,0.12638864747154083,1.9166156162139159,-5.563210425890609
46,0.1295248520516524,1.9164509790898268,-5.562944878479733
47,0.13263872261072907,1.9162833756066542,-5.562741211435049
48,0.13576586684556155,1.9161108969721534,-5.562453894720123
49,0.13891274199129608,1.9159331103614108,-5.562122868985746
50,0.14206447963935023,1.915750795315201,-5.561800650825372
51,0.14522037474896235,1.91556396315365,-5.561435418934954
52,0.1483578445827443,1.9153739684631748,-5.56099545994059
53,0.15144629837043505,1.9151827889094017,-5.5607650113345635
54,0.15452843688992787,1.9149878814192975,-5.560442167391279
55,0.1576079644637709,1.9147890184674423,-5.560104553294145
56,0.1606784730894714,1.9145866259250657,-5.559718790932927
57,0.16372311221686556,1.9143818731442925,-5.55942763976172
58,0.16676251112793886,1.9141734237523997,-5.559071942447674
59,0.1697854365837454,1.9139620802264539,-5.558703048156324
60,0.17279072795991773,1.9137479804278028,-5.558317661782014
61,0.1757635954105912,1.9135322661804262,-5.557948221467135
62,0.17870339812832858,1.913315102126067,-5.557632667292745
63,0.18162530876645636,1.913095456465488,-5.55732233926223
64,0.18453501978695436,1.912872949281389,-5.557068266995093
65,0.1874568220162999,1.912645712504718,-5.556821126077309
66,0.1904171859666263,1.91241157685714,-5.5564465098780875
67,0.19339641303515578,1.912171974819803,-5.555898644431161
68,0.19633110044434132,1.9119320452702213,-5.555440771909024
69,0.19920683556171556,1.9116931604608283,-5.555087565528622
70,0.20203866215863767,1.9114542610156375,-5.5548327200113174
71,0.20485798061339067,1.9112127965934014,-5.554514743666473
72,0.20767375896119658,1.9109680196998746,-5.55426956070739
73,0.2105104691276646,1.9107177589278534,-5.553927280917272
74,0.2133639924194823,1.9104622935433746,-5.553564925990352
75,0.21622493408040633,1.9102024062103073,-5.553062721824613
76,0.21905176376039237,1.9099419111455467,-5.552508182609711
77,0.22180996584430293,1.9096841787425893,-5.552280594300866
78,0.22454546257440974,1.9094250836791802,-5.551950383139962
79,0.22727052971302564,1.909163516615548,-5.551656358332937
80,0.229999704429781,1.9088980844480936,-5.5512394396649745
81,0.23271646378764757,1.9086304002375412,-5.550865023029127
82,0.23541766600021036,1.9083608171863968,-5.5504085551506925
83,0.23809057793207525,1.9080906798246213,-5.5501099168312455
84,0.24075339620906636,1.907818212348289,-5.549825405956476
85,0.24342196128183438,1.9075417928129932,-5.549438571343943
86,0.24608493564340705,1.907262586002333,-5.549047246419599
87,0.24873717702967474,1.9069811527268064,-5.548574480476549
88,0.2513606814158323,1.906699468876244,-5.548205892334553
89,0.2539591445383509,1.9064172297910182,-5.5478083370289255
90,0.25653195464235723,1.9061345878204625,-5.5474731864323905
91,0.25908982984080703,1.9058504323135073,-5.547104346410493
92,0.26163476839577726,1.9055645844507962,-5.546804171812312
93,0.26417600241838707,1.9052760297527407,-5.546395673826056
94,0.2667060609884789,1.9049856358219142,-5.546070654781734
95,0.2692330066121082,1.9046924955192854,-5.54567233880379
96,0.2717494084727841,1.9043974880214118,-5.545106904218658
97,0.27422586154932777,1.9041041453515237,-5.5446240933102695
98,0.27665787301102623,1.903813145331906,-5.544223945315998
99,0.27905260857800007,1.9035237696398177,-5.543887551871303
100,0.2814212767205986,1.9032347689856002,-5.543678534304978
101,0.2837906833641454,1.902942910617853,-5.543441705192956
102,0.28617580871359466,1.9026463137621505,-5.543231532177112
103,0.28858933427527905,1.9023433164741792,-5.542773169685654
104,0.29100641760933943,1.9020369734868523,-5.542221957037233
105,0.29339540418638765,1.9017313339351458,-5.541587947948484
106,0.2957309785113487,1.9014297750617062,-5.541028685746884
107,0.29800623154771344,1.9011333815681184,-5.540615553379391
108,0.30023282500322457,1.9008408150662148,-5.540308472709732
109,0.30242770238579875,1.9005499788757045,-5.540082062449208
110,0.3046110267787555,1.9002582679449098,-5.539894337752937
111,0.30680180173918636,1.8999631449783771,-5.539728408953804
112,0.30901557955249387,1.8996624591879856,-5.539452304065049
113,0.3112526599807751,1.8993560868925865,-5.539088921079521
114,0.3135019801850165,1.8990454775234953,-5.538734587923951
115,0.3157560407094291,1.8987316322629124,-5.538050902008596
116,0.3179749323823437,1.8984201546859076,-5.537447989777117
117,0.3201433658883168,1.8981133310351908,-5.53681896149085
118,0.3222498587668537,1.897812967877558,-5.536335513617089
119,0.32429973663702955,1.8975184935351113,-5.535982425154428
120,0.3263076553126886,1.8972279545507296,-5.5358593921998
121,0.32830222277791526,1.8969372937450435,-5.535907592613791
122,0.3303183147093685,1.896641412494744,-5.5358593641925005
123,0.3323759229220793,1.896337274412714,-5.5356460261227385
124,0.3344744320022856,1.8960248351381672,-5.535219798636517
125,0.3365910221946226,1.8957073924087886,-5.534587678153076
126,0.3386882924650707,1.895390553512757,-5.533861656127673
127,0.34073544531663424,1.8950790800697166,-5.53298273486612
128,0.3427036266413359,1.8947775638979618,-5.5322089093046944
129,0.344583670011269,1.8944876627823388,-5.53178300089783
130,0.34639426191791767,1.8942067252300336,-5.531910625175751
131,0.34818269103623717,1.893927542436498,-5.532235273176171
132,0.3500006146499516,1.8936420375762661,-5.532425878078457
133,0.3518829691621223,1.8933445861710843,-5.532583535068934
134,0.3538598534901064,1.8930301922002088,-5.532270795325176
135,0.35590422355433887,1.8927029019865154,-5.531656429758458
136,0.3579633806206696,1.892371017150797,-5.530482531399014
137,0.3599558704439616,1.8920477461950105,-5.52884831699498
138,0.361811312601182,1.8917448228951461,-5.527277895979516
139,0.3635011754321823,1.8914673463193343,-5.526198675391924
140,0.36503634111688477,1.8912139587738017,-5.526305222322779
141,0.36647572098168163,1.8909752450479804,-5.527676222045305
142,0.36792456320730355,1.8907338504393538,-5.529372055823325
143,0.3695182007262211,1.8904670418423422,-5.5303014021235155
144,0.371365037036507,1.8901561508510634,-5.530285442014506
145,0.3734573869878657,1.8898017338110236,-5.529533674257796
146,0.3756526749360483,1.8894273679516707,-5.528157759178107
147,0.3775402582262463,1.889103415514403,-5.527190013466369
148,0.379402149134563,1.8887820040930472,-5.525758829647624
149,0.38116664907981096,1.888475690370725,-5.523880577456127
150,0.3825911939807037,1.8882271736036151,-5.524457516114204
151,0.3839913484275871,1.8879818499543293,-5.525651990450759
152,0.3854578937953507,1.8877237640689297,-5.5266738948662635
153,0.38707950622899223,1.887437042200873,-5.526978428895948
154,0.3888872437179326,1.887115741983121,-5.526702728281763
155,0.390837029391101,1.886767220128557,-5.525805082204714
156,0.3928200759250469,1.8864106487010417,-5.523692623350059
157,0.39438298846203174,1.8861281247036519,-5.52335909136189
158,0.3959323325489584,1.885846749874132,-5.522939316974227
159,0.3974609701593353,1.8855678624779328,-5.522551534749714
160,0.3989661519071849,1.8852920178768178,-5.5222644196878115
161,0.4004515972985107,1.8850185863313678,-5.522069280529032
162,0.40192519541997856,1.8847461529753302,-5.5219158433512465
163,0.4033948910693022,1.8844732670489195,-5.521703214782165
164,0.4048632190680914,1.8841994633584358,-5.521567703996517
165,0.4063376778588957,1.883923337097958,-5.5213245691419095
166,0.40781670151545857,1.8836451678379755,-5.521009849455088
167,0.4092946847511632,1.88336600473566,-5.520611544191535
168,0.4107623187605831,1.883087618975281,-5.519932870556783
169,0.4121969697011495,1.8828143547790532,-5.519144854476108
170,0.41357615719812335,1.8825505966288787,-5.518319906608308
171,0.4148835169559843,1.8822996165592545,-5.517754826223304
172,0.4161197636047403,1.8820614299147769,-5.517547600191912
173,0.4173015292672151,1.8818329595416747,-5.518048300792254
174,0.41847357597254625,1.8816056142079518,-5.519173313202065
175,0.41970814586770183,1.8813653287316159,-5.52025364099387
176,0.4210863586124132,1.8810961009023766,-5.520694149076294
177,0.4226461002888108,1.8807901580543533,-5.520448350710219
178,0.4243492845101194,1.8804545571916114,-5.5192114092172435
179,0.4258876917267492,1.880150058163645,-5.5181014310025
180,0.4274191683002283,1.879845642085415,-5.515815382131076
181,0.42858690050448506,1.879612664072925,-5.5156504722556665
182,0.42972026225969145,1.879385827856664,-5.515945117095509
183,0.43084953945838605,1.87915910782599,-5.516706841340557
184,0.4320265592582119,1.8789220573962575,-5.517622040521594
185,0.4333156667645639,1.8786615594519458,-5.518058475880321
186,0.43474987588708597,1.8783706667542102,-5.517722754695159
187,0.4362920775982945,1.8780566088071244,-5.516412034665765
188,0.4376489444994048,1.8777792112752547,-5.515505826159096
189,0.4390019778863691,1.8775015888996718,-5.5138490138545535
190,0.44008867850147604,1.8772778845551066,-5.513743008767868
191,0.4411556894193712,1.8770576009813973,-5.513979971049797
192,0.44222740000601357,1.876835716170147,-5.514548726841772
193,0.44334234631448355,1.8766042086035022,-5.515171490094303
194,0.44454243826166356,1.8763542562029547,-5.515446339223387
195,0.4458482591147276,1.8760813813714898,-5.515143170681963
196,0.44723331114415543,1.8757909227847298,-5.513983644455876
197,0.44845313082524524,1.8755342392448324,-5.513434478015394
198,0.44967295050633505,1.8752767353360598,-5.512284271363901
199,0.45071114747377333,1.8750569256217788,-5.512257674340675
200,0.4517493444412116,1.874836521446154,-5.512310680298616
201,0.45280164668288014,1.8746125160725773,-5.512458998600605
202,0.4538824910384681,1.8743817989192086,-5.512489648829485
203,0.4549987728316825,1.874142840677271,-5.512237946247326
204,0.45614039471464685,1.873897746781549,-5.511542201625381
205,0.45727326690848696,1.873653820338761,-5.510086051193
206,0.4581978189644309,1.8734542237889305,-5.508958080773943
207,0.45905107609301393,1.8732696000650724,-5.50794861611744
208,0.45984009420971844,1.8730985184323976,-5.509561423096995
209,0.4606157602976935,1.872929996904596,-5.51009330242
210,0.4614115285296376,1.8727567628003627,-5.511586870200581
211,0.4623092028903581,1.8725609246959016,-5.513137228666227
212,0.4634340274486003,1.8723149031197956,-5.513620015858812
213,0.46484461002572314,1.8720053932374892,-5.513040889917661
214,0.46644415634291264,1.871653091686964,-5.510651710782049
215,0.4675593829787849,1.8714066261308897,-5.509896939014375
216,0.4686746096146572,1.8711594738297384,-5.5082295761638465
217,0.469566135140069,1.8709614033933413,-5.5056512338217605
218,0.47038309961123836,1.8707795128633375,-5.508292693064286
219,0.4712051913648972,1.8705961087926704,-5.508376954696163
220,0.47203945947232934,1.870409606767837,-5.50870638273531
221,0.47290850365896053,1.8702149218621609,-5.509169002256828
222,0.4738402891456554,1.870005718336517,-5.509573327371807
223,0.47486187171410177,1.8697758028392693,-5.509674962867846
224,0.4759801529837256,1.86952346402495,-5.509004664659847
225,0.47714576721559754,1.869259709865415,-5.506867977833312
226,0.47804860712394737,1.8690549006899906,-5.502962332706626
227,0.47886501748800525,1.8688693107387324,-5.517668559893049
228,0.47966679879134066,1.868686688345598,-5.512034081828406
229,0.48079414998335457,1.868429310623168,-5.511611593349717
230,0.4823075485164832,1.8680826946719176,-5.507606260777841
231,0.4834011548603113,1.8678314380240448,-5.5052962963059215
232,0.4842786666216737,1.8676293522430867,-5.502688546649063
233,0.4850862225792451,1.867443001669584,-5.509884441318767
234,0.4866998365255914,1.8670695691737533,-5.508072372474029
235,0.4878966268351183,1.8667916735416272,-5.506394168036127
236,0.4889381806783728,1.8665491815205026,-5.503625620161147
237,0.48980007614407806,1.866348065145805,-5.502776393538061
238,0.4906095386845468,1.8661588109161293,-5.505068616817063
239,0.4914103129884938,1.8659712329030211,-5.502364064498124
240,0.49216774005503827,1.865793483817729,-5.506517005337911
241,0.49305749503078966,1.8655842772173206,-5.50687183783272
242,0.49409379346261173,1.8653400647162024,-5.5064208964197086
243,0.49523505737300566,1.865070432345654,-5.504244450121434
244,0.49613931351415613,1.864856286024227,-5.499279908372768
245,0.49695825468973814,1.8646619558960424,-5.514591154301065
246,0.49776986190287015,1.8644690021834063,-5.507788152155206
247,0.4989207966712931,1.8641947548710303,-5.507700351069969
248,0.5005294096741474,1.8638102310761826,-5.506474003067787
249,0.5018219790483417,1.8635002244288912,-5.504661740219908
250,0.5029421300498482,1.8632308280937344,-5.500959911919879
251,0.5038508863328742,1.8630117661084973,-5.500132508938743
252,0.5047018898900613,1.8628062148977496,-5.504529547028089
253,0.5056910537808551,1.8625667931732133,-5.503342270788032
254,0.5067067587312472,1.8623203889371012,-5.4988285223198226
255,0.5076362822508476,1.8620943961903729,-5.512648534422167
256,0.508532615575358,1.8618760244448387,-5.50779436110044
257,0.5096249103714615,1.8616093160442706,-5.512313494260627
258,0.5105906444430521,1.8613729661041918,-5.511380526619945
259,0.5115563785146428,1.861136105644657,-5.511108278936055
260,0.5125620422593288,1.8608889094490895,-5.5160953346025945
261,0.5134827920502826,1.860662100375822,-5.507752079761722
262,0.5145713343255627,1.8603933609624488,-5.515445640476522
263,0.5155562712329202,1.86014964164715,-5.510828137357358
264,0.5165886586519098,1.8598936120846015,-5.515399541842048
265,0.5175295610447879,1.8596597637578196,-5.5080168923615735
266,0.5185449658203816,1.8594068568957047,-5.514124800071313
267,0.5194809855095056,1.859173224336433,-5.508212347367448
268,0.5205533017639311,1.8589049848317118,-5.514132371816694
269,0.5215287119995607,1.8586604421573163,-5.5111026841450075
270,0.5225043409981274,1.85841532631226,-5.513993222950579
271,0.523406124337406,1.8581883025791066,-5.506574758618749
272,0.5245246137744757,1.8579061084694781,-5.513221120934855
273,0.5255364682217475,1.8576502322545045,-5.514307979603703
274,0.5264592200393492,1.8574164031240494,-5.506521644314246
275,0.5275589262458387,1.8571371290461198,-5.512391948367738
276,0.5285595762186069,1.8568824402275845,-5.513391243361652
277,0.5294770245365293,1.8566484508655612,-5.506294462256813
278,0.5305400758865085,1.856376755663233,-5.511479258564081
279,0.5315172761156446,1.8561264622103297,-5.512413850094265
280,0.5324208506548594,1.8558945666342086,-5.505825113695352
281,0.5334590860178688,1.8556275658756587,-5.510598220200641
282,0.5344212001400244,1.855379620633721,-5.511482194875981
283,0.5353169155489998,1.855148337222731,-5.505425534044743
284,0.5363323049871622,1.8548856286155755,-5.50976663097051
285,0.5372802906817558,1.854639856836491,-5.510593342334848
286,0.5381683950283989,1.854409169897373,-5.505477942514562
287,0.5391431723451039,1.854155480019243,-5.508986281018281
288,0.5400630587026337,1.8539156062767577,-5.509707116975669
289,0.5409331920943944,1.8536882870725049,-5.504765095635488
290,0.5418959293793641,1.8534363007557872,-5.508168293318154
291,0.5428100461592026,1.8531965791311593,-5.50887169027663
292,0.5436787543363123,1.8529683495815978,-5.505051309360929
293,0.5446034614373176,1.8527249626271507,-5.507533983936337
294,0.5454896570300867,1.852491281542583,-5.508062088361241
295,0.5463399119389034,1.8522666818524,-5.504451124107837
296,0.5472487239852782,1.8520261856760944,-5.5067644615262665
297,0.5481255478960237,1.8517937352665734,-5.507254628677349
298,0.5489715299171368,1.851569071289492,-5.504210460887203
299,0.5498642837238541,1.8513315713484446,-5.506127471850676
300,0.5507306091431803,1.851100695063237,-5.506525886420364
301,0.5515708827265049,1.8508763788023477,-5.505738446574432
302,0.5524040777366814,1.8506535802640312,-5.504029260155566
303,0.553265110424735,1.8504229489970225,-5.505298346197543
304,0.5541086829505025,1.850196611480744,-5.505547247179501
305,0.5549346374738938,1.8499746339809755,-5.505443443205896
306,0.5557463614012739,1.849756127416103,-5.503466137703826
307,0.556587530940797,1.8495293249045295,-5.504432722527047
308,0.5574182321626928,1.8493049760920184,-5.504599907600851
309,0.5582375371938593,1.8490833463087681,-5.5044892977035556
310,0.5590476231203235,1.8488638603562761,-5.504284710380993
311,0.5598509135394282,1.8486458721719892,-5.5040486753492335
312,0.5606495942728774,1.8484287961376298,-5.50380215867889
313,0.561445649844646,1.8482120977221081,-5.5035669897159565
314,0.5622404722306575,1.8479954007035289,-5.503326021116067
315,0.5630352973032491,1.8477783691723777,-5.503114868393699
316,0.5638308230240492,1.8475608123630132,-5.502882331157135
317,0.5646279476916951,1.8473424834268755,-5.502652988123226
318,0.5654273025091486,1.847123207331951,-5.502442770720986
319,0.5662291666748509,1.84690290476598,-5.502217166205575
320,0.5670339965971802,1.8466814471445459,-5.501989568076883
321,0.5678421334353766,1.84645873689135,-5.501788469736948
322,0.5686537227274154,1.8462347298786566,-5.501572115441227
323,0.5694689656969112,1.846009366316592,-5.5013544673763946
324,0.570287879137847,1.845782637162878,-5.5011447098552955
325,0.5711103814406545,1.8455545606440265,-5.500917831321053
326,0.5719369424416342,1.8453250018464586,-5.500695618852919
327,0.5727675668528931,1.8450939545117315,-5.5004852270494204
