,time,theta,torque
0,0.0,1.9198621771937625,-135.0844310926892
1,0.0005107362238823968,1.919862124655507,-81.26770373075917
2,0.0010003557265827144,1.9198619756397557,-54.93937328534703
3,0.0016482945434723442,1.9198616299855806,-35.922123763545514
4,0.0024639812340178846,1.919860954384916,-23.25646779955413
5,0.003501591037932907,1.9198597076531418,-14.86159696028685
6,0.004819307504220763,1.919857499224634,-9.397052877128075
7,0.006487081903297446,1.9198537011818457,-5.902766989067811
8,0.00858188037770121,1.919847342943136,-3.715404714505818
9,0.011182890189852593,1.919836987569552,-2.382928657165395
10,0.014366562251290009,1.9198206014866332,-1.6014796205925772
11,0.01820709153266731,1.9197953971989423,-1.1675283586803389
12,0.02278848542198107,1.9197575503478197,-0.9440758532123187
13,0.028231513968019692,1.919701575554988,-0.8395185109160117
14,0.031173415650026515,1.9196663404933367,-0.8134973038910895
15,0.03175778343932342,1.9196589251809586,-0.9194159338972858
16,0.03230574271754724,1.9196518464692163,-1.1219888099907986
17,0.0347375367683812,1.9196189668671886,-1.7117995510423059
18,0.03759507965982639,1.9195772738246328,-1.998402870113259
19,0.04069314147521777,1.919528337084684,-2.123494519198366
20,0.04467887012292316,1.919459659222647,-2.1824062708654326
21,0.049597695236974285,1.9193660198674471,-2.203292725139932
22,0.055755948945284815,1.9192349278273675,-2.208434593694413
23,0.05890936156047488,1.9191618253450031,-2.2088941663554627
24,0.06206277417566495,1.9190846694659132,-2.208903321911636
25,0.06347711697868817,1.9190487460792132,-2.020170384219553
26,0.06476665108044116,1.9190152807964487,-1.7244996467991354
27,0.06899796881608374,1.9189006972053455,-1.181951742106432
28,0.07339677911421069,1.9187738070612539,-0.9479950295956927
29,0.07877356571659365,1.9186079225788517,-0.8336454470691145
30,0.08515564321774556,1.9183955848786571,-0.7857895010951426
31,0.09290489096006967,1.9181151535660106,-0.7665447125241527
32,0.09365392645117547,1.9180867295056432,-0.7654788487349466
33,0.0940570159105797,1.9180713369359577,-0.7649377448373049
34,0.09446010536998393,1.9180558769518055,-0.8404922914673668
35,0.09486353788633392,1.9180403362930374,-0.9966469827654072
36,0.09775154108004817,1.9179271133144828,-1.7206165425587245
37,0.10069429611939093,1.9178081760475976,-1.9988520621998342
38,0.1038239017467161,1.9176777278166812,-2.115757784903504
39,0.10786445091839493,1.9175032608766138,-2.1700181726923957
40,0.11284745544561799,1.9172786861706264,-2.1885055936642632
41,0.11909288752282499,1.9169824828529738,-2.1924795551212615
42,0.12239981133002888,1.9168189848283417,-2.192587144037953
43,0.12401446446605478,1.9167374745571626,-2.1924688246145343
44,0.12562911760208068,1.916654860131797,-2.192294154821638
45,0.12734041142594196,1.916566094266032,-1.7946360401243717
46,0.12905170524980325,1.916476084948341,-1.4864773915480023
47,0.1334693325736249,1.916237970139154,-1.060441095251771
48,0.13816620706184723,1.9159756703359805,-0.8759747342716732
49,0.14388299330824164,1.9156436607028797,-0.7892241094540186
50,0.15070181237540953,1.915229251125221,-0.7534720074194883
51,0.15389986585046314,1.9150279653781805,-0.7457320086793219
52,0.15525807902744376,1.9149411369478535,-0.7432527250041211
53,0.15661629220442438,1.9148535068006869,-0.7411027422532248
54,0.1573050636556338,1.9148087614844245,-0.8689875745124203
55,0.15793050554818677,1.9147679513732294,-1.09987161825173
56,0.16041017344588915,1.91460447489526,-1.6931496487351547
57,0.16328142292823616,1.914411828337885,-1.9730118266451044
58,0.16637818843699814,1.9142000053606056,-2.0931756452246715
59,0.17035967337891655,1.9139214787881862,-2.148819313741197
60,0.17527218963182947,1.9135681928036106,-2.167746362702817
61,0.18142744170523936,1.9131104504210383,-2.1715202942848264
62,0.18457865163023338,1.912869583981045,-2.1714229984672
63,0.1877298615552274,1.9126242822628319,-2.17090486407017
64,0.18910692053494477,1.9125156908857273,-1.9859053075830173
65,0.1903632985830347,1.912415873962102,-1.6941663009432777
66,0.1946061630898995,1.91207354070213,-1.1406725015944832
67,0.19900612745100724,1.911709954632902,-0.9016461244804133
68,0.2043892902336105,1.9112531889992719,-0.7835208289788043
69,0.21077727317749953,1.9106940312863234,-0.732947369847078
70,0.21852888067333978,1.9099903735261479,-0.7114182312207279
71,0.21927743997872523,1.9099209557406922,-0.7101592191908589
72,0.21967944198416448,1.9098835690630105,-0.7095165730608253
73,0.22008144398960372,1.9098461076113986,-0.7848132966671115
74,0.22048299698285972,1.909808613322393,-0.9405453524937509
75,0.2227851362627108,1.9095922131039937,-1.5774925998752758
76,0.22569604931054413,1.909315065754689,-1.9159161620882232
77,0.22859637734862645,1.9090350026904972,-2.0504498038607553
78,0.23239592416145952,1.9086621631486276,-2.1165063380695055
79,0.237075830956826,1.90819363129649,-2.140045673865803
80,0.2429248448448334,1.9075935415832999,-2.1451764189910727
81,0.25041271614747407,1.906801630506283,-2.1439954834425703
82,0.2518405071780041,1.906647594594604,-1.9520729501781504
83,0.253136321018555,1.9065069528023835,-1.6530979280816975
84,0.25738758563322295,1.9060398858670247,-1.1035263256803878
85,0.26181160629909656,1.9055446057932894,-0.8647679602772437
86,0.26722162215664397,1.9049260798684284,-0.7464281276107738
87,0.2736430310745911,1.9041734530582122,-0.6952033386855356
88,0.2814352319849877,1.9032330581164154,-0.6727222383092223
89,0.28218382285050836,1.903141142594215,-0.67137448645767
90,0.2825497153473447,1.9030961159925517,-0.670744896026758
91,0.282915607844181,1.9030510233077125,-0.7393408820355232
92,0.28328680609728285,1.9030052091877714,-0.8843178291850865
93,0.28624840705884963,1.9026372417973216,-1.6456157168751986
94,0.28920432388358897,1.9022656476703126,-1.9275123620356405
95,0.2922782275624964,1.9018746161036655,-2.0416970653755264
96,0.29625281072858906,1.9013620258207888,-2.094056941675965
97,0.3011573572551229,1.9007186034892747,-2.110959500366573
98,0.30730759439504074,1.8998946643190606,-2.113249806962384
99,0.3105519707723085,1.8994523205076195,-2.112501064894538
100,0.31379634714957627,1.8990046379984704,-2.1113547375888086
101,0.3156173678569862,1.898751015144063,-1.6901953801923233
102,0.3174383885643961,1.8984957024726232,-1.36837329508268
103,0.3218959582327897,1.8978635891431404,-0.9491354141910532
104,0.32666890618004074,1.8971754627156592,-0.7648066037282409
105,0.332473303032269,1.896322826275407,-0.6768223835648045
106,0.33940013025281013,1.8952824950212,-0.6387507816261759
107,0.3425198798065274,1.8948057985367166,-0.6301159438917162
108,0.3439169252724904,1.8945906854704162,-0.6270491915408295
109,0.3453139707384534,1.8943745531183043,-0.6243231363188189
110,0.34600103667299353,1.8942678851270518,-0.7519117945587549
111,0.34662148438492324,1.8941713475247526,-0.9827131510711232
112,0.349613401781349,1.8937029946282111,-1.668079865382577
113,0.35252021980757753,1.8932434654426005,-1.9124776089420517
114,0.355695534936237,1.892736412584299,-2.0159225834153567
115,0.35975764793187337,1.8920800007357867,-2.0610516867540376
116,0.36477896369383667,1.8912565275701618,-2.0744714708935477
117,0.37108677678876206,1.8902031086448348,-2.075128179361776
118,0.3793011160495536,1.8887994927158762,-1.2732752623563681
119,0.3840058832286628,1.887979297760988,-0.8685331573046946
120,0.38871065040777203,1.8871472065908819,-0.7033512597382958
121,0.39468925470089217,1.8860726069554081,-0.6199617860643791
122,0.40176705430008836,1.8847754459643915,-0.5838148483783651
123,0.40488800815266707,1.8841948308029135,-0.5754547661862754
124,0.4080089620052458,1.8836089207622442,-0.569049669207672
125,0.40865575865265247,1.8834868317653728,-0.6893751941129247
126,0.40924449462995177,1.8833755042141467,-0.9105050637039339
127,0.41220778765378063,1.882812289973156,-1.6124587877564827
128,0.41514980690771114,1.8822483812207633,-1.8679564404974909
129,0.4182702980464617,1.8816450984552258,-1.9721133742503492
130,0.42228109239953476,1.880861873625895,-2.0179007413519043
131,0.42723659088742594,1.8798820010672712,-2.031354006857329
132,0.4334723416429085,1.8786298369567713,-2.0316343158161336
133,0.43675915212548583,1.8779612345046812,-2.0301521822653954
134,0.43835365698461387,1.8776347404240639,-2.0292983621652043
135,0.43925878091133624,1.877448782985343,-2.028792184083082
136,0.4401639048380586,1.8772623746724422,-1.902089629033302
137,0.441027783053203,1.8770840402156763,-1.6774719732431558
138,0.44539117223846325,1.8761770048087698,-1.0184241265550507
139,0.4496957586116099,1.875271912731501,-0.7470553382678568
140,0.45502849687585,1.8741364683649064,-0.6059525163993861
141,0.46133547043085266,1.8727733353152949,-0.5421550348055396
142,0.4689593935095958,1.8710962510283056,-0.5124943214331087
143,0.47084164058731415,1.870677260958298,-0.5080048887578041
144,0.47148387031113914,1.8705338523927135,-0.6273307526217626
145,0.4720673563302244,1.8704033637391233,-0.8471717949225118
146,0.4748705481468563,1.8697738476699126,-1.5374472719685834
147,0.47785088574584045,1.869099792243849,-1.8129461037088366
148,0.4808855152794101,1.8684084209294618,-1.9201708629499918
149,0.484817340271039,1.867505088537847,-1.9682839552112483
150,0.48966798311263127,1.866378914547817,-1.9825618754308199
151,0.4957608117379499,1.8649459777128774,-1.9828356089308177
152,0.49895422435138276,1.8641867787670872,-1.981210201399576
153,0.5021476369648157,1.8634219747250327,-1.979227099190993
154,0.503062974735146,1.8632017237778948,-1.8504381129349374
155,0.5039325945997766,1.8629920475575221,-1.6233797952175812
156,0.5083128888858841,1.861929596711304,-0.9586132433764702
157,0.5126382232035008,1.8608701613252436,-0.6837396820121802
158,0.5179989182416018,1.8595429308756322,-0.5399346791776468
159,0.5243391246113951,1.8579529543170883,-0.4742026930380305
160,0.5319990549407702,1.8560028723179927,-0.44306736978382055
161,0.533888009965232,1.855517090237302,-0.4382919797403103
162,0.5346227272134615,1.8553276219586379,-0.7124651147010208
163,0.5352935811907329,1.855154367905368,-0.9458531017837771
164,0.538015128138826,1.854449011653875,-1.5377383928593304
165,0.5408998117050646,1.8536970150940295,-1.7769813567079364
166,0.5440204943995607,1.852878455568163,-1.8760827450371753
167,0.5480092679234677,1.8518245853345183,-1.9184079844710098
168,0.5529403412044195,1.8505099862208263,-1.9299801639757528
169,0.5591532208694862,1.8488352239087007,-1.9290149508869454
170,0.5624148929162901,1.8479478027153917,-1.9270354990980263
171,0.5639914955678361,1.8475168318244541,-1.9259597628012781
172,0.5648836999221791,1.8472723630366426,-1.9253334411564598
173,0.5657759042765221,1.8470274747691806,-1.798901460498119
174,0.566623914388122,1.8467943282579278,-1.5749646972341256
175,0.5710409847629605,1.8455738177441867,-0.8959964483459786
176,0.5753789283863969,1.8443652283565122,-0.6164152892140016
177,0.580765583632445,1.8428508159906891,-0.4689216434455276
178,0.5871347648137546,1.8410407961201283,-0.40086709473770177
179,0.5948245884287618,1.8388277140849167,-0.3682184156882009
180,0.5967181274767339,1.838278138984178,-0.36318169557427255
181,0.5972563978074271,1.8381215808033875,-0.46328251317063496
182,0.5977577316537469,1.837975633657626,-0.6559483276159227
183,0.6008882448944437,1.8370614099189255,-1.444304014220815
184,0.6038473321875382,1.8361927049393978,-1.7112016505527163
185,0.6068555944838278,1.835305056970897,-1.8142995748397415
186,0.6107529356997311,1.8341483453376544,-1.859932869464109
187,0.6155537251527636,1.8327131263204914,-1.8728702627868827
188,0.6215996492723229,1.8308895135517427,-1.87229923162695
189,0.6247439958299738,1.8299340308347418,-1.8703601481074708
190,0.6278883423876246,1.8289737488632816,-1.8680946283074986
191,0.6297498184079903,1.8284030042101675,-1.4276887000111995
192,0.631611294428356,1.8278305925227336,-1.0898818261258163
193,0.6361600821000422,1.8264248426586724,-0.6470894269273098
194,0.6410519385641394,1.8249020968660268,-0.44713719230183147
195,0.6470052510410411,1.8230337486407784,-0.34785532925893314
196,0.6541006326634249,1.8207854594501047,-0.30177531442410727
197,0.657033005779641,1.819849529036519,-0.291319127867197
198,0.6583495100344117,1.8194280627850838,-0.2874290395460165
199,0.6596660142891824,1.8190058093924368,-0.28389873993194575
200,0.6603208612370148,1.818795482434942,-0.5300766975943525
201,0.6609416583074115,1.8185959127385292,-0.7526012955206509
202,0.6638687046953848,1.8176526049059178,-1.4216302957389826
203,0.6668384881805416,1.8166915965940729,-1.6679069060540024
204,0.6698977872267251,1.8156975132885809,-1.7631935900734255
205,0.6738452348899557,1.8144087241783575,-1.8041124871155694
206,0.6787126488639609,1.8128101864496875,-1.8149563858677442
207,0.6848584372156611,1.8107771752724402,-1.8135870667812553
208,0.6880540630837494,1.809713693019646,-1.8114851524976152
209,0.6895961189561153,1.8091989613210262,-1.8103617258713598
210,0.6911381748284812,1.808683228667655,-1.8092046781566036
211,0.6927985716342321,1.8081268030797235,-1.403440837101529
212,0.694458968439983,1.8075692269170698,-1.082048841644339
213,0.6990038465461624,1.8060371728794862,-0.6003774337101274
214,0.7038372546096092,1.8043985604303272,-0.3840347325948419
215,0.7097368939825944,1.8023856755857641,-0.2748754631518539
216,0.7167561433931581,1.7999727745724448,-0.22399324016064676
217,0.7196226574494554,1.798981853397535,-0.21269666446702626
218,0.7224891715057528,1.7979877591327638,-0.2039612447992252
219,0.7231543401202001,1.7977566310383424,-0.45550069981603886
220,0.7237639556397242,1.7975446577233107,-0.674633633939978
221,0.7267316001535872,1.7965107405891734,-1.3616270988873482
222,0.7296992446674502,1.7954734976159055,-1.6095583255162798
223,0.7327261969511483,1.7944121320925277,-1.7044981503916754
224,0.7366403240168015,1.7930346626112854,-1.7455269036524907
225,0.7414693099783983,1.7913275232570778,-1.7565238670174497
226,0.7475640670085739,1.7891609522894423,-1.7553264806290094
227,0.7507296165616391,1.7880304790132757,-1.7533075638667033
228,0.7538951661147042,1.7868965152237537,-1.7510331979559477
229,0.7557690100607699,1.7862236377573835,-1.3027533741172845
230,0.7576428540068356,1.7855495590435555,-0.9578729317628024
231,0.7622409595757136,1.7838904412836345,-0.5022438903515932
232,0.7671951914373223,1.7820949215351842,-0.29447096550456703
233,0.7732281161536255,1.7798976052467823,-0.19012996352432193
234,0.780413172883902,1.7772654611798298,-0.14127252467553894
235,0.7832830088075154,1.7762096153373867,-0.1305328822799767
236,0.7848425281354964,1.7756347841170435,-0.12574445551258273
237,0.7851877026296538,1.7755074536649296,-0.12476022679799728
238,0.7855328771238111,1.7753800867820693,-0.18878486075654974
239,0.7858779918430046,1.7752527055849676,-0.3248229460357217
240,0.7883002666056991,1.7743576293577843,-1.0752323220249782
241,0.7908555209646048,1.7734114947954513,-1.4376752628963707
242,0.7933938251702676,1.7724697046150164,-1.5880544616321512
243,0.7967641870140431,1.7712162539108351,-1.665803257763056
244,0.8008880979050239,1.7696780538490284,-1.6943873928797153
245,0.8060444984747692,1.7677478921578507,-1.7004021393247473
246,0.8126018311547418,1.7652825814733553,-1.6976621773086351
247,0.8213526678681471,1.7619743975848725,-0.8228164390641611
248,0.825840015748558,1.7602701529712599,-0.41023495736548526
249,0.830327363628969,1.758560733031658,-0.22452972743842187
250,0.8365179514873795,1.7561941748498513,-0.11428909412701352
251,0.8437081845429047,1.753433710491629,-0.06433184052698286
252,0.8465514898406105,1.7523387124247485,-0.0534977153593377
253,0.848039317497033,1.7517649740851569,-0.04885260258333268
254,0.8485541818093113,1.7515663115418496,-0.1441445494992506
255,0.8490207969021556,1.7513862131607156,-0.3247382975573553
256,0.8518832718309042,1.7502802939417756,-1.1350777993475922
257,0.8546118480294449,1.7492243683668176,-1.4425352253044894
258,0.8573059490413268,1.7481801413467808,-1.5645020093279574
259,0.8608797721806869,1.746792452757766,-1.624341080729289
260,0.8652519266215134,1.7450909913080692,-1.6443436959764273
261,0.8707397513044968,1.7429495844663798,-1.6471469639318255
262,0.8777839419882267,1.740191701431157,-1.6437064593654134
263,0.8824632223591822,1.7383541686009176,-1.0769092299533565
264,0.8871425027301376,1.7365123292454667,-0.46399598720534324
265,0.891828790770254,1.7346635122780554,-0.2049329760105046
266,0.8976397380298391,1.732365276864117,-0.06803165423231869
267,0.9045218446773857,1.7296354285418793,-0.008031847636457473
268,0.9070443533223628,1.7286327415398866,-0.0
269,0.9095668619673398,1.7276289431590455,-0.0
270,0.9103633337458265,1.7273117692100013,-0.0
271,0.9107704145426769,1.727149617842687,-0.0
272,0.9111774953395274,1.7269874380412233,-0.04577196392679726
273,0.9115522807773743,1.7268380995238783,-0.19273561441384943
274,0.9145794595063642,1.7256310011041407,-1.0769732201616429
275,0.9172542037922257,1.724563151399171,-1.3869754904673701
276,0.9199036452088013,1.7235042296971972,-1.5118383338839636
277,0.9234301830749871,1.7220929649349037,-1.5741335163990917
278,0.9277400184697411,1.7203655095982384,-1.5955782981003086
279,0.9331455790729212,1.7181947130159443,-1.5993052467064133
280,0.9400697345391784,1.7154074810610422,-1.5966509007374055
281,0.9449540363411694,1.7134370266417833,-1.0079438505813838
282,0.9498383381431603,1.7114630672199742,-0.38465065736990467
283,0.9545724387976449,1.7095465329270287,-0.13303703475984488
284,0.9604864577707385,1.7071478870146688,-0.00506923338796789
285,0.9671133241012292,1.7044543939424475,-0.0
286,0.9713311635383737,1.7027369655341302,-0.0
287,0.9732897050656638,1.7019386792513036,-0.0
288,0.9736727220841122,1.7017825053926932,-0.0
289,0.9740557391025605,1.7016263122598014,-0.0
290,0.9744225762378723,1.7014766991856614,-0.018818886378129056
291,0.9751557729700618,1.7011776149753237,-0.2968623703941568
292,0.9781386306040099,1.6999601307651164,-1.089549716417334
293,0.9811214882379579,1.698741495081383,-1.3836484741284496
294,0.9838923033543107,1.6976084667372915,-1.4882734667114368
295,0.987586909385309,1.6960961702420823,-1.5385619606677825
296,0.9921051703774972,1.694244401463617,-1.5547093785910004
297,0.9977909248112629,1.691910551823006,-1.556845291735788
298,1.0051343953089849,1.6888904173072625,-1.5542921090138786
299,1.00715364931908,1.6880588233164842,-1.0703713085221787
300,1.0091683378642509,1.6872286238628438,-0.7024068303478557
301,1.0138859688969786,1.685282727204865,-0.24054067040223687
302,1.0190193108660905,1.6831623794627573,-0.026827073943152552
303,1.0245451339631555,1.6808764731315382,-0.0
304,1.033958579526498,1.6769742036675899,-0.0
305,1.0365727105043305,1.675888727823062,-0.0
306,1.0380864945625021,1.6752597953835688,-0.1479029232947369
307,1.0396002786206737,1.6746306007648992,-0.6537125250229804
308,1.0424503819691724,1.6734452629930274,-1.1958368465821207
309,1.0453602296952662,1.6722341215484224,-1.3968000444592965
310,1.0484779624985938,1.6709353827702025,-1.4774668835004192
311,1.0524596960921013,1.6692751215910606,-1.5112226060268108
312,1.057379063866147,1.6672214028299266,-1.5206865509768215
313,1.0636258843940698,1.664609530694524,-1.5210041108724277
314,1.0659147560967897,1.6636514108928095,-1.5204729291818486
315,1.0670805704088455,1.6631631718762738,-1.5201542543310895
316,1.067765517646006,1.6628762458474344,-1.5199580839442643
317,1.0684504648831663,1.6625892661369985,-1.417947033600909
318,1.0691093918698786,1.6623131377264355,-1.2277729195241462
319,1.0735749261138425,1.6604405096845694,-0.45228500963832036
320,1.0780375148392587,1.6585668270147078,-0.11837269450470171
321,1.0836107107521775,1.6562236099773735,-0.0
322,1.0922002840331015,1.6526050977502338,-0.0
323,1.0973634497305174,1.6504258529572184,-0.0
324,1.098371066767356,1.650000194859788,-0.0
325,1.0993786838041948,1.6495744161577626,-0.0
326,1.101266042019131,1.6487765687246705,-0.08335352708467307
327,1.103153400234067,1.6479782959845548,-0.7006948473708389
