,time,theta,torque
0,0.0,1.9198621771937625,-135.0844310926892
1,0.000510678967140896,1.9198621246672862,-81.27457559561891
2,0.0010003728184078326,1.9198619756328685,-54.94672186922687
3,0.00164951200259148,1.9198616291769262,-35.91238435153104
4,0.0024672026764294653,1.9198609511853815,-23.24745304336997
5,0.0035091211494738986,1.9198596970202366,-14.859213667529305
6,0.004835099003397848,1.919857468517247,-9.409869400235479
7,0.006517897256999221,1.9198536204620142,-5.939686647501851
8,0.008637552073468955,1.9198471498474114,-3.7861618555585284
9,0.011274111977825,1.9198365749063504,-2.4964956459876806
10,0.014493715110494182,1.9198198621995368,-1.762525672731354
11,0.018333832105073614,1.9197944640638922,-1.3689316448793045
12,0.02282994764147402,1.9197571691631352,-1.1555746858696165
13,0.028045780806890023,1.919703682731093,-1.0056478921870775
14,0.030883568897112294,1.9196699672851116,-0.9316692921276747
15,0.0316177334528932,1.9196607149159102,-1.049494300951348
16,0.03228082662113675,1.9196521709774172,-1.2709425749557897
17,0.034283545797699835,1.9196252867107038,-1.6983987703440226
18,0.03695822604453326,1.919586852001288,-1.9457518883700289
19,0.040237756084233314,1.9195357740058097,-2.05083501510375
20,0.044473790440512584,1.9194633501076375,-2.0784610354548256
21,0.04983104406941928,1.9193613335501314,-2.078223099722648
22,0.05707398029778024,1.919204865909189,-2.106489464838526
23,0.06568007130490162,1.9189911651278746,-1.3874578085728384
24,0.07030277167087598,1.9188638853425055,-1.0988625163052366
25,0.0746492811155638,1.918736225640313,-1.0333375694976394
26,0.08122817511552717,1.9185282413026359,-1.0259854389553185
27,0.08854915755328903,1.9182758367417014,-0.9757079155384757
28,0.09296192060188524,1.9181129976136713,-0.9017160343924677
29,0.09401684493028387,1.9180728739486494,-0.8798086116620019
30,0.09474992182290773,1.9180447197408352,-1.000882106985734
31,0.09541123732474519,1.9180191301898932,-1.2259028384436608
32,0.09743404418373641,1.9179397302316636,-1.6699494536500987
33,0.10019332697061839,1.9178286783441953,-1.9278300923226264
34,0.10343441380588639,1.9176941850601363,-2.031636994226548
35,0.10766506291167918,1.9175120304060773,-2.0601982014675917
36,0.11298775308177525,1.917272212420647,-2.061699067295891
37,0.12016013716188366,1.9169302216818636,-2.091896759979711
38,0.12889503981498374,1.9164843768672783,-1.3682609195172166
39,0.133537982101001,1.916234204231492,-1.0826358254280941
40,0.1379136448458825,1.9159900148710332,-1.016827540440711
41,0.14446404337907218,1.9156091292400206,-1.005041613697434
42,0.1518214841108847,1.9151592831816566,-0.9472679649539916
43,0.15597103090879522,1.9148952382469766,-0.8747751931025076
44,0.15704107805608053,1.914825935437249,-0.8521505867652033
45,0.15782598205047682,1.9147747833931927,-1.1189649791078136
46,0.1586108860448731,1.9147233629924472,-1.354050803846721
47,0.16068311404307792,1.9145863169032293,-1.7284462385252772
48,0.1633066138616194,1.9144101221954475,-1.93307802373254
49,0.16675325176849867,1.9141740649367436,-2.0227295294002197
50,0.17109937388259644,1.913868964094611,-2.0415323650719963
51,0.17665124776444577,1.913467098911848,-2.041958327085562
52,0.1843749192984374,1.912885290461265,-2.0820758404598863
53,0.1923939499860704,1.9122530429480087,-1.4002683325084089
54,0.1971962846620714,1.9118605686594035,-1.0811751603192405
55,0.2015256219677495,1.91149781228171,-1.0059035092391835
56,0.20792949572788086,1.9109456090375814,-0.9804368059367781
57,0.2151536423725948,1.9103001635027927,-0.9118242619496839
58,0.21880318646138583,1.9099649657991897,-0.8451499848960091
59,0.219474470286852,1.9099026410224416,-0.8308825429353968
60,0.22014575411231815,1.9098401077896359,-0.9421305808909983
61,0.2207592738132725,1.9097827731118815,-1.154849168635717
62,0.22265944729393378,1.9096040912555865,-1.5986598253661415
63,0.2257190166083917,1.9093128633732275,-1.8931637986425265
64,0.22883545428518678,1.909011741727124,-1.989826214104139
65,0.23308702495980715,1.908593620539749,-2.0161331029198863
66,0.23836502896683373,1.9080627518999052,-2.0146321246037964
67,0.24558395660055685,1.9073153697596503,-2.0418400116919617
68,0.2540108429398359,1.9064115816158234,-1.3236948730287665
69,0.25833992158935104,1.9059340663162598,-1.0312142215810387
70,0.2626690002388662,1.9054475254548753,-0.9520327148115394
71,0.26915891491873895,1.9047011347985885,-0.9404500228328901
72,0.27631474725549127,1.903854377406725,-0.8958554164384637
73,0.2802278359861836,1.9033807257719515,-0.8341730799188216
74,0.2824421541099146,1.9031093592972472,-0.7892151703928779
75,0.28313173876443476,1.903024356221635,-0.9034819753986552
76,0.2837578286636877,1.9029469765432752,-1.1205693747285086
77,0.2856921036552382,1.9027066914065733,-1.5715411623382884
78,0.28881352163263785,1.9023150249685201,-1.8659855889705252
79,0.29192410129869034,1.9019199042796446,-1.9587551931027256
80,0.2961939308736794,1.9013696769835557,-1.9834509212490903
81,0.30147947963669397,1.900675922030425,-1.9821920661005543
82,0.3087511791718718,1.899698501719107,-2.0116188836302835
83,0.317042684637663,1.8985513252173427,-1.2995831192608587
84,0.3214172534971554,1.8979319600383018,-0.9980031457545472
85,0.3257084596296522,1.8973148731028808,-0.9157857851609346
86,0.3322143236937431,1.8963612398187926,-0.899182602080927
87,0.33933013792847255,1.8952931316897843,-0.8500356220137065
88,0.3430525014932071,1.8947239071224249,-0.789762672275397
89,0.3452117286720025,1.894390405248748,-0.7454627667252445
90,0.34588187659944475,1.8942864025993342,-0.8566750816159331
91,0.34649201814239333,1.8941915082558778,-1.0698900979912
92,0.3483738832579333,1.8938975972385514,-1.5215358781993973
93,0.35142518102380277,1.8934170975457887,-1.8223748083823024
94,0.3543651480595429,1.8929495026668275,-1.9178037652425892
95,0.3585803305659555,1.892271144467285,-1.9462708431885833
96,0.36371838154933,1.8914315711698404,-1.9438732412226256
97,0.37074146310690065,1.8902613246549154,-1.9667763803291116
98,0.37923327323764605,1.8888112330997096,-1.2332772683090425
99,0.38348839267665674,1.8880700949753868,-0.9383508037598989
100,0.38774351211566743,1.8873192289387009,-0.8553423728972425
101,0.3944135264463585,1.886122591273212,-0.8446426958184075
102,0.40149245408208967,1.8848262787987473,-0.8052269064199868
103,0.40533527180776674,1.8841111892972482,-0.746843899253945
104,0.40686290792412017,1.8838246900824553,-0.7169209427977968
105,0.4083905440404736,1.8835369210881696,-0.6841436584219679
106,0.40911657570607596,1.8833997092091264,-0.9343065796111115
107,0.4098426073716783,1.8832622102197307,-1.1639854837211199
108,0.41198477133661426,1.8828548438474486,-1.582738618349633
109,0.4146816491932345,1.8823384309880402,-1.7996593254619548
110,0.41799852497904183,1.8816978517492897,-1.885781019772985
111,0.4222584762146268,1.8808663147805231,-1.902683838275908
112,0.42767668121083346,1.8797943291532324,-1.8999454463749572
113,0.4352491192452967,1.8782691426908247,-1.9350886600792063
114,0.4430273847564824,1.8766696766426532,-1.2469936068505185
115,0.4476407648990448,1.8757052745687388,-0.9095084492946629
116,0.4519704852569957,1.8747894975193558,-0.8202814032354724
117,0.45841759398734405,1.8734067083384083,-0.7935950758025061
118,0.46552661395944134,1.8718553540044178,-0.7329837154763343
119,0.4689738064746671,1.8710930501201946,-0.6728470057378723
120,0.4710596869072463,1.8706285972008332,-0.6282768454577348
121,0.47181350475061606,1.8704601572667676,-0.8908620632492728
122,0.472518356697892,1.8703023748918466,-1.114206605129185
123,0.4746154509052904,1.869831314578105,-1.5315105163841554
124,0.47738305533498204,1.8692059246511803,-1.7558525390189745
125,0.4806495227091477,1.868462368680855,-1.8393742584126545
126,0.4849006416806653,1.8674858579023057,-1.8547928388099555
127,0.49029358585259986,1.8662327243707186,-1.850106011082717
128,0.4979018209912103,1.864437595637606,-1.88349535035427
129,0.5055034758673924,1.8626122366204436,-1.1981475570932425
130,0.5098901823647619,1.8615444452926215,-0.8569776892924301
131,0.5142768888621314,1.8604661175830888,-0.7560152510381891
132,0.5206346192191748,1.8588846177389806,-0.7291072579242247
133,0.5276732567223318,1.8571080567613183,-0.6759364419493368
134,0.5310445098769754,1.8562476179405787,-0.6205342434665856
135,0.5325190843589462,1.8558693290632382,-0.5906598496889239
136,0.5339936588409171,1.8554898635551333,-0.5581380907316101
137,0.5346965923820342,1.8553085575295847,-0.8041055489582672
138,0.5353792345052334,1.855132229666495,-1.0255259847623073
139,0.5374319315488919,1.8546004979215616,-1.4566685308300444
140,0.5404298807082744,1.8538198250363986,-1.7050414711871877
141,0.5436032664127699,1.8529881980681968,-1.784498896552504
142,0.5478791867176344,1.8518590884131991,-1.7996261695840376
143,0.553230809644499,1.8504321441623472,-1.7951210583837611
144,0.5608349294931251,1.8483783750138982,-1.8295502564149555
145,0.568348647460785,1.8463189743709063,-1.1450706207141623
146,0.572742701551972,1.8451008763062613,-0.7949195331428669
147,0.5771367556431591,1.8438726876256757,-0.6894629247637115
148,0.5835105009451577,1.8420733205459,-0.6594148446249015
149,0.590534847856455,1.8400660029844993,-0.6042723365556001
150,0.5938132537222837,1.8391204940556982,-0.5497052383618256
151,0.5952526593228654,1.8387036314309886,-0.5203508637527711
152,0.5966920649234472,1.8382857156573842,-0.48842575526496435
153,0.5973090546360381,1.8381062574560345,-0.5909675550297713
154,0.5978713264270474,1.8379425465161197,-0.7924776316179888
155,0.5996394841970886,1.8374266872061114,-1.2629468204900904
156,0.6024621450455515,1.8365999055066744,-1.5907447162903652
157,0.605179202739068,1.8358002692150235,-1.7013240307497248
158,0.6091141882161536,1.834635639614812,-1.7395020346841994
159,0.6138944229518001,1.8332104721593212,-1.7369321476677368
160,0.6203038726020809,1.8312818628354333,-1.748020639626364
161,0.6240620150979871,1.830141675002609,-1.775238160219206
162,0.6278201575938933,1.8289946231887495,-1.8157515694069168
163,0.6295289095630083,1.8284708240614371,-1.4237512507787744
164,0.6312376615321234,1.8279456196555104,-1.125267786544146
165,0.6350005508917589,1.8267841197582524,-0.7777983886426525
166,0.6402087123907325,1.8251653846158689,-0.6241346893763006
167,0.6459296068488778,1.8233725481146876,-0.5900460333209935
168,0.6530252728171684,1.8211276973924606,-0.5345696065831722
169,0.6561657687891045,1.820126735513166,-0.4834551990460082
170,0.6593062647610406,1.8191212728877533,-0.41770771702810605
171,0.6599179861888881,1.8189249027895358,-0.519442582656228
172,0.6604740920824469,1.8187462389947682,-0.7197018058123666
173,0.6622256371949822,1.8181825958875835,-1.1955147347179766
174,0.6649928600962346,1.817289297243237,-1.5282969996253462
175,0.6676449037258758,1.8164299647866973,-1.6415547283783811
176,0.6715261885645266,1.8151666933637272,-1.6816196929028966
177,0.6762240867706379,1.8136287598078875,-1.678013270140604
178,0.6825279910786054,1.8115499894413576,-1.6850601188425145
179,0.686089519275504,1.810367993056417,-1.7084216284633886
180,0.6896510474724026,1.809180607929217,-1.7447794243299886
181,0.6905224237539564,1.8088892832292995,-1.7554229419723808
182,0.6913938000355103,1.8085976397018517,-1.641031050588915
183,0.6922152825381741,1.8083224039717545,-1.4301811391633
184,0.6944675790701723,1.807566332400272,-1.0291173328271122
185,0.6992998781577193,1.8059370870642135,-0.6483489470513186
186,0.7038162505387972,1.8044057017384034,-0.5461300267970833
187,0.7102637190694945,1.8022052522631957,-0.5089668362643015
188,0.7174432837653612,1.7997355286424148,-0.4348808170793758
189,0.7205628484754498,1.7986561476751013,-0.3754168420207738
190,0.7224102787237325,1.7980151610129904,-0.33375796645019284
191,0.7230480401176594,1.7977935787671702,-0.561157155426464
192,0.7236647806844888,1.7975791521381284,-0.7692426478896723
193,0.7255478348731416,1.7969235608288876,-1.2200109167883668
194,0.7284836720733416,1.7958987613377884,-1.5079922848084235
195,0.7312838586073838,1.794918296547872,-1.59773768175859
196,0.735372021529095,1.7934816238149005,-1.6224447261234898
197,0.7403271814771429,1.791732050122015,-1.6162334960265303
198,0.747179769243408,1.789297952285438,-1.6350439413451319
199,0.7502892553002363,1.7881879496437,-1.661617825454161
200,0.7533987413570645,1.7870745737819644,-1.6970363650887126
201,0.7545666029402018,1.7866555479994006,-1.545759704137345
202,0.7556191226943412,1.7862775050275146,-1.2904353832763145
203,0.7582539072197683,1.7853294862329125,-0.8754008720782649
204,0.7628605854163804,1.7836663211960635,-0.5620681364556136
205,0.7674672636129924,1.7819960821981784,-0.46966941627758857
206,0.7740315882799907,1.7796040778500333,-0.4296659290232701
207,0.7813954422181317,1.7769043603684398,-0.3399561478301655
208,0.7844708515308352,1.775771850066742,-0.2756138845491891
209,0.7850311734306366,1.7755651998001223,-0.2624687794468987
210,0.7855914953304379,1.7753584534742908,-0.3554918621679832
211,0.7861047097242304,1.7751690046705624,-0.5426986307251747
212,0.787747702480236,1.77456196883182,-1.0179757809634316
213,0.790498159342123,1.7735439329763563,-1.3900731335539163
214,0.7931314599892659,1.7725671389264088,-1.5158498875943367
215,0.7968537644310929,1.7711828943242875,-1.5613077303397367
216,0.8014152313745697,1.7694810823319982,-1.5594087390074938
217,0.8074695139912513,1.7672131535552296,-1.5635131220089067
218,0.8111686133014168,1.7658224300081946,-1.5861430336759792
219,0.8148677126115822,1.7644279536298695,-1.6235363474034414
220,0.820734046721261,1.7622089312107643,-1.0383523609159933
221,0.8251329381227348,1.7605390393321414,-0.5949902600126099
222,0.8295318295242086,1.7588641582961002,-0.4427381761047715
223,0.8356411177890576,1.7565299502121599,-0.37674100656878806
224,0.8424028763028065,1.753935764082749,-0.30083534318118377
225,0.8452054975226209,1.7528573105403014,-0.2489419341604402
226,0.8480081187424352,1.7517770102801202,-0.18635473884685871
227,0.8485609740370951,1.7515636903221277,-0.27781734055103535
228,0.8490665409529021,1.7513685547240758,-0.46260978980111517
229,0.8507037784007234,1.7507362196394483,-0.9430662579161098
230,0.8533103834631641,1.7497282294109884,-1.3159038945237667
231,0.8559346520847179,1.7487118554083032,-1.4524716508667725
232,0.8595593237688351,1.747305500206097,-1.5031606547135639
233,0.864032400298359,1.7455659950432016,-1.5037924605492867
234,0.8699128078243026,1.7432726717661453,-1.5071759322839713
235,0.8736158638475803,1.7418247807394,-1.5287368628103477
236,0.877318919870858,1.740374074557505,-1.5657008866770732
237,0.8831954906603854,1.7380662178730197,-0.9748099263599218
238,0.8876418860213234,1.736315513723641,-0.5233777477726178
239,0.8920882813822615,1.7345610175365775,-0.3701709820966002
240,0.8982740144392248,1.7321140432657378,-0.30684794991832964
241,0.9050865424821778,1.729411060685858,-0.23386765735203124
242,0.9078705416124374,1.7283040927645446,-0.18321511267164842
243,0.910654540742697,1.7271957764301653,-0.12165379788613734
244,0.9111902243834079,1.726982366369503,-0.21033977185897115
245,0.911681063327945,1.7267867787641287,-0.3906069449739502
246,0.9132639963043735,1.7261557378221826,-0.8657959223259054
247,0.9158488251865551,1.7251243761506156,-1.2568154060857106
248,0.9184938088318798,1.7240678538853302,-1.4014487297264417
249,0.922042450332369,1.722648555450412,-1.4540041434876956
250,0.9264709664108151,1.7208744757311163,-1.4548111340839593
251,0.932271912095751,1.7185458744506388,-1.4559214574909414
252,0.9359302005763752,1.717074677411421,-1.4755957722304922
253,0.9395884890569994,1.7156014355310734,-1.5108416170511914
254,0.9454764438170623,1.7132260651032143,-0.9131258593615248
255,0.9520102568924603,1.7105841930461108,-0.36826191244795486
256,0.9582029531206749,1.708074623331554,-0.26001386490291667
257,0.9643915858055573,1.7055613689466709,-0.21449345928108215
258,0.9721640634812717,1.702397543893322,-0.09117200869349558
259,0.9737188738876574,1.7017636858535568,-0.05451368728793538
260,0.9742014203074651,1.7015668988693262,-0.13452894861281864
261,0.9746416257021803,1.7013873523180372,-0.29735359070214085
262,0.9761375200041156,1.7007770325924259,-0.7619088864057194
263,0.9789193806464004,1.6996412689548752,-1.2062860550559713
264,0.9816663364805793,1.6985187758138043,-1.355619713040265
265,0.9851772039260898,1.6970827198458975,-1.406719216943166
266,0.9896277115330917,1.6952600813663634,-1.4087157460769992
267,0.9954161703461952,1.6928858084460217,-1.4128035527651657
268,0.999032805156649,1.6914002657453333,-1.4343727632732481
269,1.0026494399671029,1.6899131300977412,-1.4710985879125087
270,1.0084228438599427,1.6875358784845114,-0.8802678081922762
271,1.0128814640173045,1.6856972793390845,-0.4126211765807075
272,1.0173400841746663,1.683856331185065,-0.25276575327398315
273,1.0236593994886891,1.681243120203561,-0.18881862284473636
274,1.0304959452355662,1.678410798959764,-0.1196959600833247
275,1.0332403706418176,1.6772722910784748,-0.07115641275782411
276,1.035984796048069,1.676132918121715,-0.011533029689734322
277,1.0367249677187325,1.6758254813270734,-0.0
278,1.0374651393893959,1.6755179817912198,-0.25634022692963887
279,1.038156355711766,1.6752307638143067,-0.4886693601296127
280,1.0401282357789088,1.6744110971466761,-0.9687289549111816
281,1.042965117720706,1.6732310891740156,-1.2533104784570506
282,1.0456705412372755,1.6721049062151196,-1.3446302530602725
283,1.0496787702911492,1.6704348727531766,-1.3726288062101304
284,1.0544955677989423,1.6684255279047995,-1.36941488266254
285,1.0611358989947455,1.6656511573606654,-1.3917036831024632
286,1.0641327398316065,1.6643974130050305,-1.419759979547766
287,1.0671295806684675,1.6631426431445222,-1.4568834726866187
288,1.0677423365505303,1.6628859573411492,-1.4654906605693285
289,1.068355092432593,1.662629228576276,-1.3819965958094471
290,1.068953011643019,1.662378674560103,-1.2143834482634546
291,1.0707692628772523,1.6616173355866277,-0.8306509312365046
292,1.0746293070179738,1.6599980194233337,-0.3977640106918664
293,1.0799333526657189,1.6577701368019746,-0.19394077613738347
294,1.0857573639955824,1.6553201010118155,-0.1402859294562924
295,1.0927915304841627,1.6523557066387784,-0.07841568681343569
296,1.0954829062827103,1.651219948522064,-0.0339464070449096
297,1.098174282081258,1.6500833341226189,-0.0
298,1.0992937175954756,1.649610324144323,-0.0
299,1.099741995818144,1.6494208653929545,-0.015415257496405722
300,1.1001513720239147,1.6492478271520912,-0.1683259708520156
301,1.1015813327155517,1.6486432437178853,-0.6280553975689577
302,1.104454419120466,1.6474277715906334,-1.124393677020248
303,1.1072133343070965,1.6462596670866543,-1.2830363946207068
304,1.110643036182486,1.6448062744783354,-1.3370766480248335
305,1.1150358312010589,1.6429426652110712,-1.3407395138967075
306,1.1207133050875704,1.6405305304963804,-1.3445084243866339
307,1.1244305701949435,1.6389490454846465,-1.3663502293227832
308,1.1279848682599567,1.6374352753365793,-1.4031731669812828
309,1.1336646726431987,1.63501293821859,-0.8127480114729824
310,1.1381654308079392,1.6330905142368795,-0.3285371001486479
311,1.1426548743532192,1.6311703121337304,-0.163681710935678
312,1.1491044712555065,1.6284071011925445,-0.10047771702296267
313,1.1559753216498898,1.6254573275038477,-0.0352069923915988
314,1.158746965773543,1.6242656127131103,-0.0
315,1.1615186098971961,1.6230728521611213,-0.0
316,1.1620622224326163,1.622838788456149,-0.0
317,1.1625438161736077,1.622631394354569,-0.0
318,1.1629809463259795,1.6224431205138778,-0.12792385956572008
319,1.1642834219239118,1.6218819827061761,-0.5541259023706779
320,1.1671919832210578,1.6206280583153552,-1.0872688114311233
321,1.1700122465965734,1.6194110777663722,-1.257223342179873
322,1.1733672436821072,1.6179619023497251,-1.313154054382108
323,1.1777303005950348,1.6160749230150766,-1.3183403062278123
324,1.1833271368260052,1.613650369767732,-1.3221180046374352
325,1.1872631911369378,1.6119425630766555,-1.3456992496668019
